290	8424
291	8426
291	8428
291	8430
291	8432
291	8434
291	8436
291	8438
291	8440
291	8442
291	8444
291	8446
291	8448
291	8450
291	8452
291	8454
291	8456
292	8458
292	8460
292	8462
293	8464
293	8466
293	8468
293	8470
293	8472
293	8474
293	8476
292	8478
292	8480
292	8482
292	8484
292	8486
292	8488
292	8491
293	8493
293	8495
294	8497
294	8499
294	8501
294	8503
294	8505
294	8507
294	8509
294	8511
294	8513
294	8515
295	8517
295	8519
295	8521
295	8523
295	8525
295	8527
295	8529
295	8531
295	8534
295	8536
295	8538
295	8540
295	8542
295	8544
295	8546
295	8548
294	8550
294	8552
294	8554
294	8556
294	8558
293	8560
294	8562
294	8564
295	8566
295	8568
296	8570
296	8572
296	8574
296	8576
297	8578
297	8580
297	8582
297	8584
298	8586
298	8588
298	8590
298	8592
298	8594
298	8596
298	8598
298	8600
298	8602
298	8604
298	8606
298	8608
298	8610
298	8612
298	8614
298	8616
298	8619
298	8621
298	8623
298	8625
299	8627
298	8629
299	8631
299	8633
299	8635
299	8637
299	8639
299	8641
299	8643
299	8645
299	8647
299	8649
299	8651
299	8653
299	8655
298	8657
298	8659
298	8662
298	8664
299	8666
299	8668
299	8670
299	8672
299	8674
299	8676
299	8678
299	8680
300	8682
300	8684
300	8686
300	8688
300	8690
300	8692
300	8694
301	8696
301	8698
301	8700
300	8702
301	8704
301	8706
301	8708
301	8710
301	8712
301	8714
301	8716
301	8718
300	8720
300	8722
301	8724
301	8726
301	8728
301	8730
301	8732
301	8734
301	8736
301	8738
301	8740
301	8742
301	8744
301	8747
301	8749
301	8751
301	8753
301	8755
301	8757
300	8759
300	8761
300	8763
300	8765
300	8767
300	8769
300	8771
300	8773
300	8775
301	8777
302	8779
302	8781
303	8783
303	8785
303	8787
304	8790
304	8792
304	8794
305	8796
306	8798
306	8800
307	8802
308	8804
308	8806
308	8808
309	8810
309	8812
309	8814
309	8816
309	8818
309	8820
309	8822
309	8824
309	8826
309	8828
308	8830
308	8832
308	8834
308	8836
308	8838
308	8840
307	8842
307	8844
306	8846
306	8848
305	8850
305	8852
304	8854
304	8856
303	8858
302	8860
302	8862
301	8864
301	8866
300	8868
299	8870
299	8872
299	8875
299	8877
298	8879
298	8881
299	8883
299	8885
299	8887
299	8889
299	8891
299	8893
299	8895
299	8897
299	8899
299	8901
300	8903
300	8905
300	8907
301	8909
302	8911
304	8913
307	8915
311	8918
317	8920
324	8922
332	8924
341	8926
349	8928
356	8930
364	8932
369	8934
373	8936
375	8938
374	8940
372	8942
369	8944
364	8946
359	8948
353	8950
346	8952
339	8954
332	8956
326	8958
323	8960
317	8962
312	8964
308	8966
304	8968
301	8970
299	8972
298	8974
296	8976
295	8978
295	8980
294	8982
293	8984
293	8986
292	8988
292	8990
292	8992
291	8994
291	8996
291	8998
291	9000
290	9003
290	9005
290	9007
290	9009
290	9011
290	9013
290	9015
290	9017
290	9019
290	9021
290	9023
290	9025
290	9027
290	9029
290	9031
290	9033
290	9035
290	9037
290	9039
290	9041
290	9043
290	9046
290	9048
290	9050
290	9052
290	9054
290	9056
291	9058
291	9060
292	9062
292	9064
292	9066
293	9068
293	9070
294	9072
294	9074
294	9076
295	9078
295	9080
296	9082
296	9084
296	9086
297	9088
297	9090
297	9092
297	9094
298	9096
298	9098
299	9100
299	9102
299	9104
300	9106
300	9108
300	9110
301	9112
301	9114
302	9116
302	9118
303	9120
303	9122
304	9124
304	9126
305	9128
305	9131
306	9133
306	9135
307	9137
307	9139
308	9141
308	9143
309	9145
310	9147
310	9149
311	9151
312	9153
312	9155
313	9157
314	9159
314	9161
315	9163
315	9165
316	9167
316	9169
317	9171
317	9174
318	9176
318	9178
318	9180
318	9182
318	9184
319	9186
319	9188
319	9190
319	9192
319	9194
319	9196
319	9198
318	9200
318	9202
317	9204
317	9206
316	9208
315	9210
315	9212
314	9214
314	9216
313	9218
312	9220
311	9222
310	9224
309	9226
308	9228
307	9230
306	9232
305	9234
304	9236
303	9238
303	9240
301	9242
300	9244
299	9246
298	9248
297	9250
296	9252
295	9254
294	9256
293	9259
292	9261
291	9263
290	9265
289	9267
288	9269
287	9271
287	9273
286	9275
285	9277
285	9279
284	9281
284	9283
284	9285
283	9287
283	9289
283	9291
283	9293
283	9295
282	9297
282	9299
282	9302
282	9304
282	9306
281	9308
281	9310
281	9312
281	9314
280	9316
280	9318
280	9320
280	9322
279	9324
279	9326
279	9328
279	9330
279	9332
279	9334
280	9336
279	9338
279	9340
279	9342
279	9344
279	9346
279	9348
279	9350
279	9352
279	9354
280	9356
280	9358
280	9360
280	9362
280	9364
280	9366
279	9368
279	9370
279	9372
279	9374
279	9376
280	9378
280	9380
280	9382
280	9384
280	9387
280	9389
280	9391
280	9393
281	9395
281	9397
281	9399
281	9401
281	9403
281	9405
281	9407
281	9409
282	9411
282	9413
282	9415
282	9417
282	9419
282	9421
282	9423
282	9425
282	9427
283	9430
283	9432
283	9434
283	9436
283	9438
283	9440
283	9442
283	9444
283	9446
283	9448
283	9450
283	9452
283	9454
282	9456
282	9458
282	9460
283	9462
283	9464
283	9466
283	9468
284	9470
284	9472
284	9474
284	9476
284	9478
285	9480
285	9482
285	9484
285	9486
285	9488
285	9490
286	9492
286	9494
286	9496
286	9498
286	9500
286	9502
286	9504
286	9506
286	9508
286	9510
287	9512
287	9515
287	9517
287	9519
287	9521
288	9523
288	9525
288	9527
288	9529
288	9531
288	9533
288	9535
288	9537
288	9539
288	9541
288	9543
288	9545
287	9547
287	9549
287	9551
287	9553
287	9555
287	9558
287	9560
288	9562
288	9564
289	9566
289	9568
290	9570
290	9572
290	9574
290	9576
290	9578
291	9580
291	9582
291	9584
291	9586
291	9588
291	9590
291	9592
291	9594
291	9596
291	9598
291	9600
292	9602
292	9604
292	9606
292	9608
293	9610
293	9612
293	9614
293	9616
293	9618
293	9620
293	9622
293	9624
293	9626
293	9628
293	9630
293	9632
294	9634
294	9636
294	9638
295	9640
295	9643
296	9645
297	9647
297	9649
298	9651
298	9653
298	9655
299	9657
299	9659
300	9661
301	9663
301	9665
302	9667
302	9669
303	9671
303	9673
304	9675
304	9677
305	9679
305	9681
305	9683
305	9686
305	9688
305	9690
306	9692
306	9694
306	9696
306	9698
306	9700
306	9702
305	9704
305	9706
305	9708
305	9710
304	9712
304	9714
303	9716
303	9718
302	9720
302	9722
301	9724
301	9726
301	9728
300	9730
300	9732
300	9734
300	9736
300	9738
299	9740
299	9742
299	9744
299	9746
299	9748
299	9750
299	9752
299	9754
299	9756
299	9758
299	9760
299	9762
298	9764
299	9766
299	9768
299	9771
299	9773
300	9775
301	9777
302	9779
305	9781
309	9783
313	9785
319	9787
326	9789
335	9791
344	9793
352	9795
360	9797
368	9799
373	9801
376	9803
376	9805
376	9807
373	9809
369	9811
366	9814
362	9816
356	9818
350	9820
344	9822
338	9824
332	9826
327	9828
321	9830
316	9832
312	9834
308	9836
305	9838
302	9840
300	9842
299	9844
298	9846
297	9848
297	9850
296	9852
295	9854
295	9856
295	9858
294	9860
294	9862
294	9864
294	9866
294	9868
294	9870
294	9872
294	9874
294	9876
293	9878
294	9880
294	9882
293	9884
293	9886
294	9888
294	9890
294	9892
294	9894
294	9896
295	9899
295	9901
295	9903
295	9905
295	9907
295	9909
296	9911
296	9913
296	9915
296	9917
297	9919
297	9921
297	9923
297	9925
297	9927
297	9929
298	9931
298	9933
298	9935
298	9937
299	9939
299	9942
299	9944
300	9946
300	9948
300	9950
300	9952
301	9954
302	9956
302	9958
303	9960
303	9962
304	9964
304	9966
304	9968
305	9970
305	9972
305	9974
306	9976
306	9978
307	9980
307	9982
308	9984
308	9986
308	9988
309	9990
310	9992
310	9994
311	9996
311	9998
312	10000
312	10002
313	10004
314	10006
314	10008
315	10010
315	10012
316	10014
316	10016
317	10018
317	10020
317	10022
318	10024
318	10027
319	10029
319	10031
319	10033
320	10035
320	10037
320	10039
321	10041
321	10043
321	10045
322	10047
321	10049
321	10051
321	10053
321	10055
321	10057
322	10059
321	10061
321	10063
321	10065
320	10067
320	10070
319	10072
319	10074
318	10076
317	10078
317	10080
316	10082
315	10084
315	10086
314	10088
313	10090
312	10092
311	10094
310	10096
309	10098
308	10100
307	10102
306	10104
305	10106
304	10108
303	10110
303	10112
302	10114
301	10116
300	10118
299	10120
298	10122
297	10124
297	10126
296	10128
295	10130
294	10132
294	10134
293	10136
292	10138
292	10140
292	10142
291	10144
291	10146
291	10148
291	10150
290	10152
290	10155
290	10157
290	10159
290	10161
290	10163
290	10165
290	10167
290	10169
289	10171
289	10173
289	10175
289	10177
289	10179
289	10181
289	10183
289	10185
289	10187
289	10189
289	10191
289	10193
289	10195
289	10198
289	10200
290	10202
290	10204
290	10206
290	10208
290	10210
290	10212
290	10214
290	10216
290	10218
291	10220
291	10222
291	10224
291	10226
291	10228
291	10230
292	10232
292	10234
292	10236
292	10238
293	10240
293	10242
293	10244
293	10246
293	10248
293	10250
293	10252
294	10254
294	10256
294	10258
294	10260
294	10262
294	10264
294	10266
294	10268
294	10270
294	10272
294	10274
294	10276
294	10278
294	10280
294	10283
294	10285
294	10287
294	10289
294	10291
295	10293
295	10295
295	10297
295	10299
295	10301
295	10303
295	10305
295	10307
295	10309
296	10311
295	10313
296	10315
296	10317
296	10319
296	10321
296	10323
296	10326
297	10328
297	10330
297	10332
297	10334
297	10336
297	10338
297	10340
297	10342
297	10344
297	10346
297	10348
297	10350
298	10352
297	10354
298	10356
297	10358
298	10360
298	10362
298	10364
298	10366
298	10368
298	10370
298	10372
298	10374
298	10376
298	10378
298	10380
298	10382
299	10384
299	10386
298	10388
298	10390
299	10392
299	10394
298	10396
299	10398
299	10400
299	10402
299	10404
299	10406
299	10408
299	10411
299	10413
299	10415
300	10417
300	10419
300	10421
301	10423
300	10425
301	10427
301	10429
301	10431
301	10433
301	10435
301	10437
301	10439
301	10441
302	10443
302	10445
303	10447
303	10449
303	10451
304	10454
304	10456
305	10458
305	10460
305	10462
306	10464
306	10466
307	10468
307	10470
308	10472
308	10474
309	10476
310	10478
310	10480
311	10482
311	10484
311	10486
311	10488
311	10490
312	10492
312	10494
312	10496
311	10498
312	10500
311	10502
311	10504
311	10506
311	10508
311	10510
310	10512
310	10514
309	10516
309	10518
308	10520
307	10522
307	10524
306	10526
306	10528
306	10530
305	10532
305	10534
305	10536
304	10539
304	10541
304	10543
303	10545
303	10547
303	10549
303	10551
302	10553
302	10555
302	10557
301	10559
301	10561
301	10563
301	10565
301	10567
301	10569
301	10571
301	10573
301	10575
301	10577
301	10579
301	10582
302	10584
303	10586
305	10588
308	10590
311	10592
317	10594
322	10596
329	10598
338	10600
346	10602
354	10604
362	10606
368	10608
373	10610
376	10612
376	10614
375	10616
372	10618
369	10620
364	10622
362	10624
356	10626
350	10628
344	10630
337	10632
331	10634
326	10636
321	10638
316	10640
312	10642
309	10644
306	10646
304	10648
302	10650
301	10652
300	10654
299	10656
298	10658
298	10660
297	10662
297	10664
296	10667
296	10669
296	10671
296	10673
296	10675
295	10677
295	10679
295	10681
295	10683
295	10685
295	10687
294	10689
294	10691
294	10693
294	10695
293	10697
294	10699
293	10701
294	10703
293	10705
294	10707
294	10710
294	10712
294	10714
295	10716
296	10718
296	10720
296	10722
296	10724
297	10726
297	10728
297	10730
298	10732
298	10734
298	10736
299	10738
299	10740
299	10742
300	10744
300	10746
300	10748
300	10750
300	10752
301	10754
301	10756
301	10758
301	10760
301	10762
302	10764
302	10766
303	10768
303	10770
303	10772
303	10774
304	10776
304	10778
304	10780
304	10782
305	10784
305	10786
305	10788
306	10790
306	10792
307	10795
308	10797
308	10799
308	10801
309	10803
310	10805
310	10807
311	10809
311	10811
312	10813
312	10815
313	10817
314	10819
314	10821
315	10823
316	10825
316	10827
317	10829
317	10831
318	10833
318	10835
319	10838
320	10840
320	10842
320	10844
321	10846
321	10848
321	10850
322	10852
322	10854
322	10856
322	10858
323	10860
323	10862
322	10864
322	10866
322	10868
322	10870
322	10872
322	10874
321	10876
321	10878
321	10880
320	10882
319	10884
319	10886
318	10888
317	10890
316	10892
315	10894
314	10896
312	10898
311	10900
310	10902
309	10904
309	10906
307	10908
306	10910
305	10912
304	10914
304	10916
303	10918
302	10920
301	10923
300	10925
299	10927
298	10929
298	10931
297	10933
296	10935
296	10937
295	10939
294	10941
293	10943
293	10945
292	10947
292	10949
291	10951
291	10953
290	10955
290	10957
289	10959
289	10961
289	10963
288	10966
288	10968
288	10970
287	10972
287	10974
287	10976
287	10978
287	10980
287	10982
287	10984
287	10986
287	10988
286	10990
286	10992
286	10994
287	10996
287	10998
287	11000
287	11002
287	11004
287	11006
287	11008
287	11010
287	11012
287	11014
287	11016
287	11018
288	11020
288	11022
289	11024
289	11026
289	11028
289	11030
290	11032
290	11034
290	11036
290	11038
290	11040
290	11042
290	11044
290	11046
290	11048
291	11051
291	11053
291	11055
291	11057
291	11059
292	11061
292	11063
292	11065
292	11067
292	11069
292	11071
292	11073
292	11075
292	11077
293	11079
293	11081
293	11083
292	11085
292	11087
293	11089
292	11091
293	11094
293	11096
293	11098
293	11100
293	11102
292	11104
293	11106
293	11108
293	11110
294	11112
294	11114
294	11116
294	11118
294	11120
294	11122
294	11124
294	11126
294	11128
294	11130
294	11132
294	11134
294	11136
294	11138
294	11140
294	11142
294	11144
294	11146
294	11148
294	11150
295	11152
294	11154
294	11156
295	11158
295	11160
295	11162
295	11164
295	11166
295	11168
295	11170
295	11172
295	11174
295	11176
295	11179
295	11181
296	11183
296	11185
296	11187
296	11189
296	11191
296	11193
297	11195
296	11197
296	11199
297	11201
297	11203
297	11205
297	11207
297	11209
297	11211
297	11213
297	11215
298	11217
298	11219
298	11222
298	11224
298	11226
298	11228
298	11230
298	11232
298	11234
298	11236
298	11238
298	11240
298	11242
298	11244
298	11246
298	11248
298	11250
299	11252
298	11254
299	11256
299	11258
299	11260
299	11262
299	11264
299	11266
299	11268
299	11270
300	11272
300	11274
300	11276
301	11278
301	11280
302	11282
302	11284
303	11286
303	11288
304	11290
304	11292
304	11294
305	11296
305	11298
306	11300
307	11302
307	11304
308	11307
308	11309
308	11311
309	11313
309	11315
309	11317
310	11319
310	11321
310	11323
310	11325
310	11327
309	11329
309	11331
309	11333
309	11335
309	11337
308	11339
308	11341
308	11343
307	11345
307	11347
307	11350
306	11352
305	11354
305	11356
304	11358
304	11360
303	11362
303	11364
303	11366
303	11368
302	11370
302	11372
301	11374
301	11376
301	11378
300	11380
300	11382
300	11384
300	11386
299	11388
299	11390
299	11392
299	11394
299	11396
299	11398
298	11400
299	11402
298	11404
299	11406
299	11408
299	11410
299	11412
300	11414
302	11416
305	11418
308	11420
314	11422
320	11424
328	11426
336	11428
344	11430
352	11432
359	11435
365	11437
369	11439
371	11441
371	11443
369	11445
366	11447
362	11449
358	11451
352	11453
346	11455
340	11457
334	11459
327	11461
322	11463
316	11465
311	11467
307	11469
304	11471
301	11473
299	11475
298	11478
297	11480
296	11482
295	11484
294	11486
294	11488
293	11490
293	11492
293	11494
292	11496
292	11498
292	11500
292	11502
292	11504
292	11506
291	11508
291	11510
292	11512
291	11514
291	11516
291	11518
291	11520
291	11522
291	11524
291	11526
292	11528
292	11530
291	11532
292	11534
292	11536
292	11538
292	11540
292	11542
292	11544
292	11546
293	11548
293	11550
293	11552
294	11554
294	11556
294	11558
294	11560
294	11563
295	11565
294	11567
295	11569
295	11571
296	11573
297	11575
297	11577
297	11579
297	11581
298	11583
298	11585
298	11587
299	11589
299	11591
299	11593
300	11595
300	11597
300	11599
301	11601
301	11603
302	11606
302	11608
303	11610
303	11612
303	11614
304	11616
304	11618
305	11620
305	11622
306	11624
306	11626
307	11628
307	11630
308	11632
308	11634
309	11636
309	11638
310	11640
310	11642
311	11644
312	11646
312	11648
313	11650
313	11652
313	11654
314	11656
314	11658
315	11660
315	11662
316	11664
316	11666
317	11668
317	11670
318	11672
318	11674
319	11676
319	11678
319	11680
320	11682
320	11684
320	11686
320	11688
320	11691
320	11693
320	11695
320	11697
320	11699
320	11701
320	11703
319	11705
319	11707
318	11709
318	11711
317	11713
316	11715
316	11717
315	11719
314	11721
313	11723
312	11725
311	11727
310	11729
309	11731
308	11734
307	11736
306	11738
305	11740
304	11742
303	11744
302	11746
301	11748
300	11750
299	11752
298	11754
298	11756
296	11758
296	11760
295	11762
294	11764
294	11766
293	11768
293	11770
292	11772
291	11774
291	11776
291	11778
290	11780
290	11782
289	11784
289	11786
288	11788
289	11790
288	11792
288	11794
288	11796
288	11798
287	11800
287	11802
287	11804
287	11806
287	11808
287	11810
287	11812
287	11814
287	11816
287	11819
287	11821
287	11823
287	11825
287	11827
287	11829
288	11831
288	11833
288	11835
288	11837
288	11839
288	11841
288	11843
288	11845
289	11847
289	11849
289	11851
289	11853
289	11855
289	11857
289	11859
289	11862
290	11864
290	11866
290	11868
290	11870
290	11872
290	11874
290	11876
290	11878
290	11880
290	11882
290	11884
290	11886
290	11888
291	11890
290	11892
291	11894
291	11896
291	11898
291	11900
291	11902
291	11904
291	11906
292	11908
292	11910
292	11912
292	11914
292	11916
292	11918
292	11920
292	11922
292	11924
292	11926
292	11928
293	11930
293	11932
293	11934
293	11936
293	11938
293	11940
292	11942
292	11944
292	11947
293	11949
292	11951
293	11953
293	11955
293	11957
293	11959
293	11961
293	11963
293	11965
293	11967
293	11969
293	11971
293	11973
293	11975
294	11977
294	11979
294	11981
294	11983
294	11985
294	11987
294	11990
294	11992
294	11994
294	11996
294	11998
294	12000
294	12002
294	12004
294	12006
294	12008
294	12010
295	12012
295	12014
295	12016
295	12018
295	12020
295	12022
295	12024
295	12026
295	12028
295	12030
295	12032
295	12034
295	12036
295	12038
295	12040
295	12042
295	12044
295	12046
295	12048
295	12050
295	12052
295	12054
295	12056
295	12058
296	12060
296	12062
296	12064
296	12066
296	12068
296	12070
296	12072
296	12075
295	12077
295	12079
296	12081
296	12083
296	12085
296	12087
296	12089
296	12091
296	12093
296	12095
296	12097
296	12099
296	12101
297	12103
297	12105
297	12107
297	12109
297	12111
297	12113
297	12115
297	12118
297	12120
297	12122
297	12124
297	12126
297	12128
297	12130
297	12132
297	12134
297	12136
297	12138
298	12140
298	12142
298	12144
298	12146
298	12148
298	12150
299	12152
299	12154
299	12156
300	12158
300	12160
300	12162
300	12164
301	12166
301	12168
302	12170
302	12172
302	12174
302	12176
303	12178
303	12180
304	12182
304	12184
305	12186
306	12188
306	12190
307	12192
307	12194
308	12196
308	12198
308	12200
308	12203
308	12205
309	12207
309	12209
309	12211
309	12213
309	12215
309	12217
309	12219
308	12221
308	12223
308	12225
307	12227
306	12229
306	12231
305	12233
304	12235
304	12237
303	12239
303	12241
303	12243
302	12246
302	12248
302	12250
301	12252
301	12254
300	12256
300	12258
300	12260
299	12262
299	12264
299	12266
299	12268
299	12270
298	12272
298	12274
298	12276
298	12278
298	12280
297	12282
298	12284
298	12286
298	12288
298	12290
298	12292
298	12294
299	12296
301	12298
304	12300
308	12302
313	12304
319	12306
327	12308
335	12310
344	12312
353	12314
360	12316
366	12318
370	12320
372	12322
373	12324
371	12326
368	12328
364	12331
360	12333
355	12335
349	12337
343	12339
336	12341
330	12343
324	12345
319	12347
314	12349
310	12351
305	12353
302	12355
299	12357
297	12359
295	12361
294	12363
293	12365
292	12367
292	12369
291	12371
291	12374
290	12376
290	12378
289	12380
289	12382
289	12384
289	12386
288	12388
288	12390
288	12392
288	12394
288	12396
288	12398
288	12400
288	12402
288	12404
288	12406
288	12408
289	12410
289	12412
289	12414
289	12416
289	12418
289	12420
289	12422
289	12424
289	12426
289	12428
290	12430
290	12432
290	12434
290	12436
291	12438
291	12440
291	12442
292	12444
292	12446
292	12448
292	12450
293	12452
293	12454
293	12456
293	12459
294	12461
294	12463
294	12465
295	12467
295	12469
295	12471
295	12473
295	12475
296	12477
297	12479
297	12481
297	12483
298	12485
298	12487
298	12489
299	12491
300	12493
300	12495
301	12497
301	12499
302	12502
302	12504
303	12506
304	12508
304	12510
305	12512
306	12514
306	12516
308	12518
308	12520
309	12522
309	12524
310	12526
310	12528
311	12530
312	12532
312	12534
313	12536
313	12538
314	12540
314	12542
315	12544
315	12546
316	12548
316	12550
316	12552
317	12554
317	12556
317	12558
317	12560
317	12562
318	12564
318	12566
318	12568
319	12570
319	12572
319	12574
319	12576
319	12578
319	12580
318	12582
318	12584
317	12587
317	12589
316	12591
316	12593
315	12595
314	12597
314	12599
313	12601
313	12603
312	12605
311	12607
311	12609
310	12611
309	12613
308	12615
307	12617
307	12619
306	12621
305	12623
304	12625
304	12627
303	12630
302	12632
301	12634
300	12636
299	12638
299	12640
298	12642
297	12644
296	12646
296	12648
295	12650
294	12652
294	12654
293	12656
293	12658
292	12660
291	12662
291	12664
291	12666
290	12668
290	12670
290	12672
289	12674
289	12676
288	12678
288	12680
288	12682
288	12684
289	12686
289	12688
289	12690
289	12692
290	12694
290	12696
290	12698
290	12700
291	12702
291	12704
291	12706
291	12708
291	12710
291	12712
291	12715
291	12717
291	12719
291	12721
291	12723
291	12725
292	12727
292	12729
292	12731
292	12733
292	12735
292	12737
292	12739
292	12741
293	12743
293	12745
293	12747
293	12749
294	12751
293	12753
294	12755
294	12758
294	12760
294	12762
294	12764
294	12766
295	12768
295	12770
295	12772
295	12774
295	12776
295	12778
295	12780
295	12782
295	12784
295	12786
295	12788
296	12790
295	12792
296	12794
296	12796
296	12798
296	12800
296	12802
296	12804
297	12806
297	12808
297	12810
297	12812
297	12814
297	12816
297	12818
297	12820
297	12822
297	12824
297	12826
297	12828
297	12830
297	12832
297	12834
297	12836
298	12838
297	12840
297	12843
297	12845
297	12847
297	12849
297	12851
297	12853
297	12855
298	12857
297	12859
297	12861
298	12863
298	12865
297	12867
298	12869
298	12871
298	12873
298	12875
298	12877
298	12879
298	12881
298	12883
299	12886
298	12888
298	12890
298	12892
299	12894
299	12896
299	12898
299	12900
299	12902
299	12904
299	12906
299	12908
300	12910
300	12912
300	12914
300	12916
300	12918
300	12920
300	12922
300	12924
300	12926
300	12928
300	12930
301	12932
301	12934
300	12936
301	12938
301	12940
301	12942
301	12944
301	12946
301	12948
301	12950
301	12952
301	12954
301	12956
301	12958
301	12960
301	12962
302	12964
302	12966
302	12968
302	12971
302	12973
302	12975
302	12977
302	12979
303	12981
303	12983
303	12985
303	12987
304	12989
305	12991
305	12993
305	12995
305	12997
306	12999
306	13001
307	13003
307	13005
308	13007
309	13009
309	13011
310	13014
310	13016
310	13018
311	13020
311	13022
312	13024
313	13026
313	13028
314	13030
314	13032
315	13034
315	13036
315	13038
315	13040
315	13042
315	13044
315	13046
315	13048
315	13050
315	13052
315	13054
315	13056
315	13058
314	13060
314	13062
313	13064
312	13066
312	13068
311	13070
310	13072
310	13074
310	13076
309	13078
309	13080
308	13082
308	13084
308	13086
307	13088
307	13090
307	13092
306	13094
306	13096
306	13099
306	13101
305	13103
305	13105
305	13107
304	13109
304	13111
304	13113
304	13115
304	13117
304	13119
304	13121
304	13123
304	13125
305	13127
305	13129
305	13131
306	13133
308	13135
310	13137
315	13139
320	13142
326	13144
333	13146
341	13148
349	13150
357	13152
365	13154
371	13156
376	13158
378	13160
378	13162
377	13164
374	13166
370	13168
366	13170
360	13172
354	13174
348	13176
341	13178
335	13180
330	13182
327	13184
322	13186
317	13188
313	13190
310	13192
308	13194
305	13196
304	13198
302	13200
301	13202
300	13204
300	13206
299	13208
298	13210
298	13212
297	13214
297	13216
296	13218
296	13220
296	13222
295	13224
295	13227
295	13229
295	13231
295	13233
294	13235
294	13237
294	13239
294	13241
295	13243
295	13245
295	13247
295	13249
295	13251
295	13253
295	13255
295	13257
295	13259
295	13261
295	13263
295	13265
295	13267
295	13270
295	13272
295	13274
295	13276
296	13278
296	13280
296	13282
296	13284
297	13286
297	13288
297	13290
297	13292
298	13294
298	13296
298	13298
298	13300
299	13302
299	13304
299	13306
300	13308
300	13310
300	13312
301	13314
301	13316
301	13318
302	13320
302	13322
302	13324
303	13326
303	13328
303	13330
304	13332
304	13334
305	13336
305	13338
306	13340
306	13342
307	13344
308	13346
309	13348
309	13350
310	13352
311	13355
311	13357
311	13359
312	13361
312	13363
313	13365
313	13367
314	13369
315	13371
315	13373
316	13375
317	13377
317	13379
318	13381
318	13383
318	13385
319	13387
319	13389
320	13391
320	13393
320	13395
321	13398
321	13400
322	13402
322	13404
322	13406
322	13408
323	13410
322	13412
322	13414
322	13416
322	13418
321	13420
321	13422
320	13424
320	13426
319	13428
319	13430
318	13432
317	13434
317	13436
316	13438
315	13440
314	13442
314	13444
312	13446
312	13448
311	13450
310	13452
308	13454
307	13456
306	13458
305	13460
304	13462
303	13464
302	13466
302	13468
300	13470
300	13472
299	13474
298	13476
297	13478
296	13480
295	13483
295	13485
294	13487
293	13489
293	13491
292	13493
292	13495
291	13497
291	13499
290	13501
290	13503
290	13505
289	13507
289	13509
289	13511
289	13513
288	13515
288	13517
288	13519
288	13521
287	13523
287	13526
287	13528
287	13530
287	13532
287	13534
287	13536
287	13538
288	13540
287	13542
287	13544
287	13546
287	13548
287	13550
287	13552
287	13554
288	13556
288	13558
288	13560
288	13562
288	13564
289	13566
289	13568
289	13570
289	13572
289	13574
289	13576
290	13578
290	13580
290	13582
290	13584
290	13586
290	13588
290	13590
290	13592
291	13594
291	13596
291	13598
291	13600
291	13602
292	13604
292	13606
292	13608
292	13611
293	13613
293	13615
293	13617
293	13619
293	13621
294	13623
294	13625
294	13627
294	13629
294	13631
294	13633
294	13635
294	13637
294	13639
294	13641
295	13643
295	13645
295	13647
295	13649
295	13651
295	13654
295	13656
295	13658
295	13660
295	13662
295	13664
295	13666
295	13668
295	13670
295	13672
295	13674
295	13676
295	13678
295	13680
295	13682
295	13684
295	13686
295	13688
296	13690
295	13692
296	13694
296	13696
296	13698
296	13700
296	13702
296	13704
297	13706
296	13708
297	13710
296	13712
296	13714
297	13716
296	13718
297	13720
297	13722
297	13724
297	13726
297	13728
297	13730
297	13732
297	13734
297	13736
298	13739
297	13741
298	13743
298	13745
298	13747
298	13749
298	13751
298	13753
298	13755
298	13757
298	13759
298	13761
298	13763
299	13765
299	13767
299	13769
299	13771
299	13773
300	13775
300	13777
300	13779
301	13782
301	13784
301	13786
301	13788
302	13790
302	13792
303	13794
303	13796
303	13798
304	13800
304	13802
304	13804
304	13806
305	13808
306	13810
306	13812
307	13814
308	13816
309	13818
309	13820
310	13822
310	13824
311	13826
311	13828
311	13830
312	13832
312	13834
312	13836
313	13838
313	13840
313	13842
313	13844
314	13846
313	13848
313	13850
312	13852
312	13854
311	13856
311	13858
310	13860
309	13862
309	13864
308	13867
307	13869
307	13871
307	13873
306	13875
305	13877
305	13879
304	13881
304	13883
303	13885
303	13887
303	13889
303	13891
302	13893
302	13895
302	13897
301	13899
301	13901
300	13903
300	13905
300	13907
300	13910
300	13912
300	13914
300	13916
300	13918
300	13920
300	13922
300	13924
300	13926
301	13928
301	13930
303	13932
305	13934
309	13936
315	13938
321	13940
328	13942
337	13944
346	13946
354	13948
362	13950
365	13952
370	13954
374	13956
375	13958
374	13960
372	13962
368	13964
364	13966
359	13968
353	13970
347	13972
341	13974
335	13976
329	13978
324	13980
319	13982
314	13984
310	13986
306	13988
303	13990
301	13992
299	13995
298	13997
297	13999
296	14001
296	14003
295	14005
295	14007
294	14009
294	14011
294	14013
293	14015
293	14017
293	14019
292	14021
292	14023
292	14025
292	14027
292	14029
291	14031
292	14033
292	14035
292	14038
292	14040
292	14042
292	14044
293	14046
293	14048
293	14050
293	14052
293	14054
294	14056
294	14058
294	14060
294	14062
294	14064
294	14066
294	14068
295	14070
295	14072
295	14074
295	14076
295	14078
295	14080
295	14082
296	14084
296	14086
296	14088
297	14090
297	14092
297	14094
298	14096
298	14098
299	14100
300	14102
300	14104
301	14106
302	14108
302	14110
302	14112
303	14114
303	14116
303	14118
304	14120
304	14123
304	14125
304	14127
304	14129
305	14131
306	14133
306	14135
307	14137
307	14139
308	14141
309	14143
310	14145
310	14147
311	14149
311	14151
312	14153
313	14155
313	14157
314	14159
315	14161
315	14163
316	14166
316	14168
317	14170
317	14172
318	14174
318	14176
319	14178
319	14180
320	14182
320	14184
320	14186
321	14188
321	14190
321	14192
322	14194
322	14196
322	14198
322	14200
323	14202
323	14204
323	14206
323	14208
322	14210
323	14212
322	14214
322	14216
322	14218
321	14220
321	14222
320	14224
319	14226
318	14228
318	14230
317	14232
316	14234
315	14236
314	14238
313	14240
312	14242
311	14244
310	14246
309	14248
308	14251
307	14253
306	14255
305	14257
304	14259
303	14261
302	14263
302	14265
301	14267
300	14269
299	14271
298	14273
297	14275
296	14277
295	14279
294	14281
294	14283
293	14285
293	14287
292	14289
292	14291
291	14294
291	14296
290	14298
290	14300
290	14302
289	14304
289	14306
289	14308
288	14310
288	14312
288	14314
288	14316
288	14318
288	14320
287	14322
287	14324
287	14326
287	14328
287	14330
287	14332
287	14334
287	14336
287	14338
287	14340
287	14342
287	14344
288	14346
288	14348
288	14350
288	14352
288	14354
288	14356
288	14358
288	14360
288	14362
288	14364
288	14366
289	14368
289	14370
289	14372
289	14374
289	14376
289	14379
289	14381
290	14383
290	14385
290	14387
290	14389
290	14391
291	14393
291	14395
291	14397
291	14399
292	14401
292	14403
292	14405
292	14407
292	14409
292	14411
292	14413
292	14415
292	14417
292	14419
292	14422
292	14424
292	14426
293	14428
293	14430
293	14432
293	14434
293	14436
293	14438
293	14440
293	14442
293	14444
293	14446
293	14448
293	14450
293	14452
293	14454
294	14456
294	14458
294	14460
294	14462
294	14464
294	14466
294	14468
294	14470
294	14472
294	14474
294	14476
294	14478
294	14480
294	14482
294	14484
294	14486
294	14488
294	14490
294	14492
294	14494
294	14496
293	14498
294	14500
294	14502
294	14504
294	14507
294	14509
294	14511
294	14513
294	14515
295	14517
295	14519
295	14521
295	14523
295	14525
295	14527
295	14529
295	14531
295	14533
295	14535
296	14537
296	14539
296	14541
296	14543
296	14545
296	14547
296	14550
296	14552
296	14554
296	14556
296	14558
296	14560
296	14562
296	14564
296	14566
296	14568
296	14570
297	14572
296	14574
296	14576
296	14578
296	14580
297	14582
297	14584
297	14586
297	14588
298	14590
298	14592
299	14594
299	14596
300	14598
300	14600
301	14602
302	14604
302	14606
303	14608
303	14610
304	14612
304	14614
305	14616
306	14618
306	14620
307	14622
307	14624
308	14626
309	14628
309	14630
310	14632
310	14635
311	14637
311	14639
311	14641
311	14643
311	14645
311	14647
311	14649
311	14651
311	14653
311	14655
311	14657
311	14659
310	14661
310	14663
309	14665
308	14667
307	14669
307	14671
306	14673
306	14675
305	14678
305	14680
304	14682
304	14684
303	14686
302	14688
302	14690
302	14692
301	14694
301	14696
301	14698
301	14700
301	14702
300	14704
300	14706
300	14708
299	14710
299	14712
299	14714
299	14716
299	14718
298	14720
298	14722
299	14724
298	14726
299	14728
299	14730
299	14732
299	14734
300	14736
302	14738
304	14740
309	14742
313	14744
319	14746
327	14748
335	14750
343	14752
351	14754
358	14756
365	14758
368	14760
371	14763
370	14765
368	14767
364	14769
358	14771
352	14773
345	14775
337	14777
330	14779
323	14781
317	14783
311	14785
306	14787
302	14789
298	14791
296	14793
293	14795
292	14797
292	14799
291	14801
291	14803
291	14806
291	14808
291	14810
291	14812
292	14814
292	14816
292	14818
291	14820
291	14822
291	14824
290	14826
290	14828
290	14830
290	14832
291	14834
291	14836
291	14838
290	14840
290	14842
290	14844
289	14846
289	14848
290	14850
290	14852
290	14854
290	14856
291	14858
291	14860
292	14862
292	14864
293	14866
293	14868
293	14870
293	14872
294	14874
294	14876
295	14878
295	14880
295	14882
296	14884
296	14886
296	14888
297	14891
297	14893
297	14895
297	14897
297	14899
298	14901
298	14903
298	14905
299	14907
299	14909
300	14911
300	14913
300	14915
300	14917
301	14919
301	14921
301	14923
302	14925
303	14927
303	14929
303	14931
303	14934
303	14936
304	14938
305	14940
305	14942
306	14944
307	14946
308	14948
308	14950
309	14952
310	14954
311	14956
311	14958
312	14960
312	14962
313	14964
313	14966
314	14968
314	14970
315	14972
315	14974
316	14976
317	14978
317	14980
318	14982
318	14984
319	14986
319	14988
319	14990
320	14992
320	14994
320	14996
321	14998
320	15000
320	15002
320	15004
321	15006
321	15008
322	15010
322	15012
322	15014
323	15016
323	15019
323	15021
323	15023
323	15025
323	15027
322	15029
322	15031
321	15033
320	15035
319	15037
319	15039
318	15041
318	15043
317	15045
316	15047
314	15049
313	15051
311	15053
310	15055
308	15057
307	15059
306	15062
306	15064
305	15066
304	15068
303	15070
303	15072
302	15074
301	15076
301	15078
301	15080
300	15082
300	15084
298	15086
297	15088
296	15090
296	15092
295	15094
295	15096
295	15098
294	15100
294	15102
294	15104
293	15106
293	15108
293	15110
292	15112
292	15114
291	15116
290	15118
290	15120
290	15122
290	15124
289	15126
289	15128
289	15130
288	15132
288	15134
288	15136
288	15138
288	15140
288	15142
288	15144
288	15147
288	15149
288	15151
288	15153
288	15155
289	15157
289	15159
289	15161
289	15163
289	15165
289	15167
289	15169
289	15171
289	15173
289	15175
289	15177
289	15179
290	15181
290	15183
290	15185
290	15187
291	15190
291	15192
291	15194
292	15196
292	15198
292	15200
292	15202
293	15204
293	15206
293	15208
293	15210
293	15212
292	15214
293	15216
292	15218
292	15220
292	15222
293	15224
293	15226
293	15228
293	15230
292	15232
292	15234
291	15236
291	15238
292	15240
293	15242
293	15244
293	15246
293	15248
293	15250
293	15252
294	15254
294	15256
294	15258
294	15260
293	15262
293	15264
292	15266
292	15268
292	15270
292	15272
293	15275
293	15277
294	15279
294	15281
294	15283
294	15285
294	15287
294	15289
295	15291
295	15293
294	15295
295	15297
295	15299
295	15301
295	15303
295	15305
295	15307
294	15309
294	15311
294	15313
294	15315
294	15318
294	15320
294	15322
294	15324
294	15326
294	15328
294	15330
294	15332
294	15334
294	15336
294	15338
294	15340
294	15342
294	15344
295	15346
295	15348
295	15350
295	15352
294	15354
295	15356
295	15358
295	15360
296	15362
296	15364
296	15366
295	15368
295	15370
295	15372
295	15374
295	15376
295	15378
295	15380
296	15382
296	15384
296	15386
295	15388
296	15390
297	15392
297	15394
298	15396
298	15398
298	15400
298	15403
298	15405
298	15407
298	15409
298	15411
298	15413
298	15415
298	15417
297	15419
298	15421
298	15423
298	15425
299	15427
300	15429
301	15431
301	15433
301	15435
301	15437
302	15439
302	15441
302	15443
303	15446
303	15448
303	15450
304	15452
305	15454
305	15456
305	15458
305	15460
305	15462
305	15464
305	15466
306	15468
307	15470
307	15472
307	15474
307	15476
307	15478
307	15480
307	15482
308	15484
308	15486
308	15488
308	15490
308	15492
307	15494
307	15496
307	15498
306	15500
306	15502
306	15504
305	15506
305	15508
304	15510
304	15512
303	15514
303	15516
302	15518
302	15520
301	15522
300	15524
298	15526
297	15528
297	15531
296	15533
297	15535
296	15537
297	15539
297	15541
297	15543
297	15545
298	15547
298	15549
297	15551
297	15553
296	15555
296	15557
296	15559
296	15561
296	15563
296	15565
296	15567
297	15569
299	15571
302	15574
305	15576
310	15578
317	15580
324	15582
333	15584
342	15586
349	15588
356	15590
362	15592
366	15594
368	15596
369	15598
368	15600
365	15602
361	15604
357	15606
352	15608
346	15610
340	15612
335	15614
332	15616
326	15618
321	15620
316	15622
311	15624
307	15626
303	15628
300	15630
297	15632
295	15634
294	15636
293	15638
292	15640
291	15642
290	15644
289	15646
288	15648
287	15650
287	15652
287	15654
287	15656
287	15659
287	15661
287	15663
287	15665
286	15667
286	15669
287	15671
287	15673
287	15675
287	15677
287	15679
288	15681
288	15683
288	15685
288	15687
288	15689
288	15691
288	15693
288	15695
288	15697
289	15699
289	15702
289	15704
290	15706
290	15708
291	15710
291	15712
292	15714
292	15716
293	15718
293	15720
294	15722
295	15724
295	15726
295	15728
295	15730
295	15732
295	15734
296	15736
296	15738
296	15740
297	15742
297	15744
297	15746
298	15748
298	15750
299	15752
299	15754
299	15756
299	15758
299	15760
299	15762
300	15764
300	15766
301	15768
301	15770
302	15772
302	15774
303	15776
304	15778
304	15780
305	15782
306	15784
306	15787
307	15789
307	15791
308	15793
308	15795
309	15797
310	15799
311	15801
312	15803
313	15805
314	15807
315	15809
315	15811
316	15813
316	15815
316	15817
316	15819
315	15821
316	15823
316	15825
317	15827
318	15830
319	15832
319	15834
319	15836
319	15838
319	15840
319	15842
319	15844
319	15846
318	15848
318	15850
318	15852
319	15854
319	15856
319	15858
319	15860
318	15862
317	15864
316	15866
315	15868
315	15870
315	15872
314	15874
314	15876
313	15878
312	15880
311	15882
311	15884
310	15886
309	15888
308	15890
307	15892
306	15894
305	15896
304	15898
303	15900
302	15902
301	15904
300	15906
299	15908
298	15910
297	15912
296	15915
295	15917
294	15919
293	15921
292	15923
291	15925
291	15927
290	15929
289	15931
289	15933
289	15935
288	15937
288	15939
287	15941
286	15943
286	15945
285	15947
285	15949
285	15951
284	15953
284	15955
284	15958
284	15960
284	15962
284	15964
284	15966
284	15968
284	15970
284	15972
284	15974
284	15976
284	15978
284	15980
284	15982
284	15984
284	15986
285	15988
285	15990
285	15992
285	15994
285	15996
285	15998
284	16000
285	16002
285	16004
285	16006
285	16008
286	16010
286	16012
287	16014
287	16016
287	16018
287	16020
287	16022
286	16024
286	16026
286	16028
287	16030
288	16032
288	16034
288	16036
288	16038
288	16040
288	16043
289	16045
289	16047
289	16049
289	16051
289	16053
289	16055
289	16057
290	16059
290	16061
290	16063
290	16065
290	16067
290	16069
290	16071
291	16073
291	16075
291	16077
291	16079
291	16081
291	16083
291	16086
292	16088
292	16090
292	16092
291	16094
292	16096
291	16098
291	16100
291	16102
291	16104
291	16106
292	16108
292	16110
292	16112
293	16114
292	16116
292	16118
292	16120
291	16122
291	16124
291	16126
292	16128
292	16130
292	16132
293	16134
293	16136
293	16138
293	16140
293	16142
294	16144
294	16146
294	16148
294	16150
294	16152
294	16154
293	16156
293	16158
293	16160
293	16162
293	16164
293	16166
294	16168
294	16171
294	16173
294	16175
294	16177
294	16179
295	16181
295	16183
295	16185
296	16187
296	16189
296	16191
296	16193
296	16195
297	16197
297	16199
297	16201
298	16203
298	16205
299	16207
300	16209
300	16211
301	16214
301	16216
302	16218
302	16220
303	16222
304	16224
305	16226
305	16228
306	16230
306	16232
307	16234
308	16236
308	16238
309	16240
310	16242
310	16244
310	16246
310	16248
310	16250
310	16252
310	16254
310	16256
310	16258
310	16260
309	16262
308	16264
308	16266
307	16268
306	16270
306	16272
305	16274
304	16276
304	16278
304	16280
304	16282
303	16284
303	16286
302	16288
301	16290
301	16292
300	16294
300	16296
299	16299
298	16301
298	16303
299	16305
299	16307
299	16309
300	16311
300	16313
299	16315
299	16317
299	16319
299	16321
299	16323
299	16325
299	16327
299	16329
299	16331
299	16333
299	16335
299	16337
300	16339
301	16342
304	16344
307	16346
312	16348
318	16350
326	16352
334	16354
343	16356
351	16358
359	16360
365	16362
370	16364
372	16366
372	16368
370	16370
368	16372
364	16374
359	16376
354	16378
349	16380
343	16382
340	16384
334	16386
327	16388
321	16390
316	16392
310	16394
306	16396
302	16398
299	16400
296	16402
294	16404
292	16406
291	16408
290	16410
289	16412
289	16414
288	16416
288	16418
288	16420
288	16422
288	16424
288	16427
288	16429
288	16431
288	16433
288	16435
288	16437
288	16439
288	16441
289	16443
289	16445
289	16447
289	16449
289	16451
289	16453
289	16455
289	16457
290	16459
290	16461
291	16463
291	16465
291	16467
291	16470
291	16472
292	16474
292	16476
293	16478
293	16480
293	16482
294	16484
294	16486
294	16488
295	16490
295	16492
295	16494
295	16496
296	16498
296	16500
296	16502
296	16504
297	16506
297	16508
298	16510
298	16512
299	16514
299	16516
299	16518
300	16520
300	16522
300	16524
301	16526
301	16528
301	16530
301	16532
301	16534
301	16536
302	16538
303	16540
303	16542
304	16544
305	16546
305	16548
306	16550
306	16552
307	16555
308	16557
308	16559
310	16561
311	16563
311	16565
311	16567
310	16569
310	16571
310	16573
312	16575
313	16577
314	16579
315	16581
316	16583
316	16585
317	16587
318	16589
318	16591
318	16593
319	16595
319	16598
319	16600
319	16602
320	16604
320	16606
321	16608
322	16610
322	16612
322	16614
322	16616
322	16618
322	16620
322	16622
322	16624
321	16626
321	16628
320	16630
319	16632
319	16634
318	16636
318	16638
317	16640
316	16642
316	16644
315	16646
314	16648
313	16650
312	16652
311	16654
311	16656
310	16658
308	16660
307	16662
306	16664
305	16666
303	16668
302	16670
300	16672
299	16674
298	16676
298	16678
297	16680
296	16683
296	16685
295	16687
294	16689
294	16691
293	16693
292	16695
291	16697
291	16699
290	16701
289	16703
288	16705
287	16707
287	16709
287	16711
286	16713
286	16715
286	16717
287	16719
287	16721
286	16723
286	16726
285	16728
285	16730
285	16732
285	16734
285	16736
285	16738
285	16740
285	16742
285	16744
285	16746
286	16748
285	16750
285	16752
285	16754
285	16756
285	16758
285	16760
285	16762
285	16764
286	16766
286	16768
286	16770
287	16772
286	16774
287	16776
287	16778
287	16780
287	16782
287	16784
287	16786
288	16788
288	16790
288	16792
288	16794
289	16796
289	16798
289	16800
289	16802
290	16804
289	16806
290	16808
290	16811
290	16813
290	16815
290	16817
290	16819
290	16821
290	16823
290	16825
290	16827
290	16829
291	16831
291	16833
291	16835
291	16837
291	16839
292	16841
292	16843
291	16845
292	16847
292	16849
292	16851
293	16854
293	16856
293	16858
293	16860
293	16862
293	16864
293	16866
293	16868
293	16870
293	16872
293	16874
293	16876
293	16878
293	16880
294	16882
293	16884
293	16886
293	16888
294	16890
294	16892
294	16894
294	16896
294	16898
294	16900
294	16902
294	16904
294	16906
293	16908
294	16910
294	16912
295	16914
295	16916
295	16918
295	16920
295	16922
295	16924
295	16926
295	16928
295	16930
296	16932
296	16934
296	16936
296	16939
297	16941
297	16943
297	16945
298	16947
298	16949
299	16951
300	16953
300	16955
301	16957
301	16959
301	16961
302	16963
302	16965
303	16967
303	16969
303	16971
304	16973
305	16975
306	16977
306	16979
307	16982
308	16984
308	16986
308	16988
308	16990
308	16992
308	16994
308	16996
308	16998
308	17000
308	17002
308	17004
308	17006
308	17008
308	17010
307	17012
306	17014
305	17016
304	17018
304	17020
303	17022
303	17024
304	17026
303	17028
302	17030
302	17032
301	17034
300	17036
300	17038
300	17040
299	17042
299	17044
299	17046
298	17048
298	17050
298	17052
298	17054
298	17056
298	17058
297	17060
297	17062
297	17064
297	17067
297	17069
297	17071
297	17073
297	17075
297	17077
297	17079
297	17081
298	17083
299	17085
300	17087
302	17089
306	17091
311	17093
316	17095
324	17097
332	17099
341	17101
349	17103
357	17105
364	17107
369	17110
372	17112
373	17114
372	17116
370	17118
367	17120
362	17122
357	17124
352	17126
346	17128
339	17130
332	17132
326	17134
320	17136
314	17138
310	17140
306	17142
302	17144
299	17146
296	17148
294	17150
293	17152
292	17154
291	17156
291	17158
291	17160
291	17162
291	17164
290	17166
290	17168
290	17170
290	17172
290	17174
290	17176
290	17178
290	17180
290	17182
291	17184
291	17186
291	17188
291	17190
291	17192
291	17195
291	17197
292	17199
292	17201
292	17203
292	17205
293	17207
293	17209
294	17211
293	17213
294	17215
294	17217
294	17219
295	17221
295	17223
295	17225
296	17227
296	17229
296	17231
296	17233
297	17235
298	17238
298	17240
298	17242
299	17244
299	17246
299	17248
300	17250
299	17252
300	17254
300	17256
301	17258
301	17260
302	17262
302	17264
303	17266
303	17268
303	17270
304	17272
304	17274
305	17276
305	17278
305	17280
305	17282
306	17284
307	17286
307	17288
308	17290
308	17292
309	17294
310	17296
310	17298
310	17300
311	17302
312	17304
313	17306
313	17308
314	17310
314	17312
315	17314
316	17316
316	17318
317	17320
317	17323
318	17325
318	17327
319	17329
320	17331
321	17333
322	17335
322	17337
323	17339
324	17341
324	17343
325	17345
325	17347
326	17349
326	17351
326	17353
326	17355
326	17357
326	17359
327	17361
327	17363
327	17366
327	17368
327	17370
327	17372
326	17374
326	17376
325	17378
325	17380
324	17382
324	17384
323	17386
322	17388
322	17390
321	17392
320	17394
319	17396
318	17398
317	17400
315	17402
314	17404
313	17406
313	17408
312	17410
310	17412
310	17414
309	17416
308	17418
307	17420
306	17422
305	17424
304	17426
303	17428
303	17430
302	17432
301	17434
300	17436
299	17438
299	17440
298	17442
297	17444
297	17446
296	17448
296	17451
295	17453
295	17455
294	17457
294	17459
293	17461
293	17463
292	17465
292	17467
292	17469
291	17471
291	17473
291	17475
290	17477
290	17479
290	17481
291	17483
291	17485
291	17487
291	17489
291	17491
291	17494
291	17496
291	17498
292	17500
292	17502
292	17504
292	17506
292	17508
292	17510
292	17512
293	17514
293	17516
293	17518
293	17520
293	17522
293	17524
293	17526
293	17528
294	17530
294	17532
294	17534
294	17536
295	17538
295	17540
294	17542
294	17544
294	17546
295	17548
295	17550
295	17552
296	17554
296	17556
296	17558
296	17560
296	17562
296	17564
296	17566
297	17568
296	17570
296	17572
296	17574
296	17576
297	17579
297	17581
297	17583
297	17585
297	17587
297	17589
297	17591
298	17593
298	17595
298	17597
298	17599
298	17601
298	17603
298	17605
298	17607
297	17609
297	17611
297	17613
298	17615
298	17617
299	17619
299	17622
299	17624
299	17626
299	17628
299	17630
299	17632
299	17634
299	17636
299	17638
299	17640
299	17642
299	17644
299	17646
299	17648
299	17650
300	17652
300	17654
300	17656
300	17658
300	17660
300	17662
300	17664
300	17666
299	17668
299	17670
300	17672
300	17674
301	17676
301	17678
301	17680
301	17682
301	17684
301	17686
301	17688
301	17690
301	17692
302	17694
303	17696
304	17698
304	17700
305	17702
305	17704
305	17707
306	17709
306	17711
307	17713
307	17715
308	17717
308	17719
309	17721
310	17723
310	17725
311	17727
311	17729
312	17731
312	17733
313	17735
313	17737
313	17739
313	17741
313	17743
313	17745
313	17747
313	17750
313	17752
313	17754
313	17756
312	17758
312	17760
311	17762
311	17764
310	17766
309	17768
309	17770
308	17772
307	17774
306	17776
306	17778
305	17780
305	17782
304	17784
304	17786
303	17788
303	17790
303	17792
303	17794
303	17796
302	17798
302	17800
301	17802
301	17804
301	17806
301	17808
301	17810
301	17812
301	17814
301	17816
301	17818
301	17820
301	17822
301	17824
301	17826
301	17828
301	17830
301	17832
302	17835
303	17837
306	17839
310	17841
315	17843
321	17845
329	17847
337	17849
346	17851
354	17853
361	17855
368	17857
372	17859
374	17861
375	17863
373	17865
370	17867
367	17869
362	17871
357	17873
351	17875
344	17878
338	17880
331	17882
325	17884
319	17886
314	17888
310	17890
306	17892
302	17894
300	17896
297	17898
295	17900
295	17902
294	17904
293	17906
293	17908
293	17910
292	17912
292	17914
292	17916
292	17918
292	17920
291	17922
291	17924
291	17926
291	17928
290	17930
291	17932
290	17934
290	17936
290	17938
290	17940
290	17942
290	17944
290	17946
289	17948
289	17950
290	17952
290	17954
291	17956
291	17958
292	17960
292	17963
292	17965
292	17967
293	17969
293	17971
293	17973
293	17975
294	17977
294	17979
295	17981
295	17983
295	17985
295	17987
296	17989
296	17991
296	17993
297	17995
297	17997
297	17999
297	18001
297	18003
298	18006
298	18008
298	18010
299	18012
300	18014
300	18016
300	18018
301	18020
301	18022
302	18024
302	18026
302	18028
303	18030
303	18032
304	18034
304	18036
305	18038
305	18040
306	18042
307	18044
307	18046
308	18048
308	18050
309	18052
310	18054
310	18056
311	18058
311	18060
312	18062
311	18064
312	18066
313	18068
313	18070
314	18072
316	18074
317	18076
318	18078
318	18080
318	18082
319	18084
319	18086
319	18088
319	18091
320	18093
320	18095
321	18097
321	18099
321	18101
322	18103
323	18105
323	18107
324	18109
324	18111
324	18113
324	18115
324	18117
324	18119
323	18121
323	18123
323	18125
322	18127
321	18129
321	18131
320	18134
319	18136
318	18138
318	18140
317	18142
316	18144
315	18146
314	18148
312	18150
312	18152
311	18154
310	18156
309	18158
308	18160
307	18162
306	18164
304	18166
304	18168
303	18170
301	18172
300	18174
300	18176
299	18178
298	18180
297	18182
296	18184
296	18186
295	18188
294	18190
294	18192
293	18194
292	18196
291	18198
290	18200
290	18202
289	18204
289	18206
288	18208
288	18210
288	18212
287	18214
287	18216
286	18219
286	18221
285	18223
285	18225
285	18227
285	18229
284	18231
284	18233
285	18235
284	18237
285	18239
285	18241
285	18243
286	18245
286	18247
287	18249
287	18251
287	18253
287	18255
287	18257
287	18259
287	18262
287	18264
287	18266
287	18268
287	18270
287	18272
287	18274
288	18276
288	18278
288	18280
288	18282
288	18284
289	18286
289	18288
289	18290
289	18292
289	18294
289	18296
289	18298
289	18300
289	18302
289	18304
289	18306
289	18308
289	18310
289	18312
289	18314
289	18316
289	18318
289	18320
289	18322
290	18324
289	18326
289	18328
289	18330
289	18332
289	18334
289	18336
289	18338
289	18340
289	18342
289	18344
289	18347
289	18349
290	18351
290	18353
290	18355
289	18357
289	18359
289	18361
289	18363
289	18365
290	18367
290	18369
290	18371
290	18373
291	18375
291	18377
291	18379
291	18381
291	18383
291	18385
292	18387
292	18390
292	18392
292	18394
292	18396
292	18398
292	18400
293	18402
293	18404
293	18406
293	18408
293	18410
293	18412
293	18414
293	18416
293	18418
293	18420
293	18422
294	18424
293	18426
293	18428
294	18430
294	18432
294	18434
294	18436
294	18438
294	18440
294	18442
294	18444
294	18446
294	18448
295	18450
295	18452
295	18454
295	18456
295	18458
296	18460
296	18462
297	18464
297	18466
298	18468
298	18470
299	18472
299	18475
300	18477
301	18479
301	18481
302	18483
303	18485
304	18487
304	18489
305	18491
306	18493
306	18495
307	18497
307	18499
308	18501
308	18503
308	18505
308	18507
308	18509
307	18511
308	18513
308	18515
307	18518
307	18520
307	18522
306	18524
306	18526
305	18528
305	18530
304	18532
304	18534
303	18536
302	18538
302	18540
301	18542
300	18544
300	18546
299	18548
299	18550
299	18552
298	18554
298	18556
298	18558
298	18560
298	18562
297	18564
297	18566
297	18568
297	18570
296	18572
296	18574
296	18576
296	18578
296	18580
296	18582
296	18584
296	18586
296	18588
296	18590
296	18592
297	18594
297	18596
298	18598
300	18600
303	18603
307	18605
312	18607
319	18609
326	18611
335	18613
345	18615
353	18617
361	18619
368	18621
374	18623
377	18625
378	18627
377	18629
375	18631
371	18633
367	18635
362	18637
356	18639
350	18641
343	18643
337	18646
331	18648
325	18650
320	18652
315	18654
311	18656
307	18658
304	18660
302	18662
300	18664
298	18666
297	18668
296	18670
295	18672
295	18674
294	18676
293	18678
293	18680
292	18682
292	18684
292	18686
291	18688
291	18690
291	18692
291	18694
291	18696
291	18698
291	18700
291	18702
291	18704
291	18706
291	18708
291	18710
291	18712
291	18714
291	18716
291	18718
291	18720
292	18722
292	18724
292	18726
292	18728
292	18731
292	18733
293	18735
293	18737
293	18739
293	18741
293	18743
294	18745
294	18747
295	18749
296	18751
296	18753
296	18755
297	18757
297	18759
298	18761
298	18763
299	18765
299	18767
299	18769
300	18771
300	18774
301	18776
301	18778
301	18780
302	18782
302	18784
303	18786
303	18788
304	18790
304	18792
305	18794
305	18796
306	18798
306	18800
307	18802
307	18804
308	18806
309	18808
309	18810
310	18812
311	18814
311	18816
312	18818
313	18820
313	18822
314	18824
315	18826
315	18828
316	18830
317	18832
318	18834
318	18836
319	18838
320	18840
320	18842
321	18844
322	18846
322	18848
323	18850
324	18852
324	18854
325	18856
325	18859
326	18861
326	18863
326	18865
327	18867
327	18869
327	18871
327	18873
328	18875
328	18877
327	18879
327	18881
327	18883
327	18885
326	18887
326	18889
325	18891
325	18893
324	18895
323	18897
323	18899
322	18902
321	18904
320	18906
319	18908
317	18910
317	18912
315	18914
314	18916
313	18918
312	18920
311	18922
310	18924
309	18926
308	18928
307	18930
306	18932
305	18934
304	18936
303	18938
302	18940
301	18942
300	18944
300	18946
299	18948
298	18950
297	18952
297	18954
296	18956
295	18958
295	18960
294	18962
294	18964
293	18966
293	18968
293	18970
292	18972
292	18974
292	18976
292	18978
291	18980
291	18982
291	18984
291	18987
291	18989
291	18991
291	18993
290	18995
291	18997
290	18999
291	19001
291	19003
291	19005
291	19007
291	19009
291	19011
291	19013
291	19015
291	19017
291	19019
291	19021
292	19023
292	19025
292	19027
292	19030
292	19032
292	19034
293	19036
293	19038
293	19040
293	19042
293	19044
293	19046
294	19048
294	19050
294	19052
294	19054
294	19056
294	19058
295	19060
295	19062
295	19064
295	19066
295	19068
295	19070
296	19072
296	19074
296	19076
296	19078
296	19080
296	19082
296	19084
296	19086
296	19088
297	19090
297	19092
297	19094
297	19096
297	19098
297	19100
297	19102
297	19104
297	19106
298	19108
297	19110
298	19112
298	19115
298	19117
298	19119
298	19121
298	19123
298	19125
298	19127
298	19129
298	19131
298	19133
299	19135
299	19137
299	19139
299	19141
299	19143
299	19145
299	19147
300	19149
300	19151
300	19153
300	19155
300	19158
300	19160
300	19162
300	19164
300	19166
301	19168
300	19170
300	19172
300	19174
300	19176
300	19178
301	19180
301	19182
301	19184
301	19186
301	19188
301	19190
301	19192
301	19194
301	19196
302	19198
301	19200
301	19202
301	19204
301	19206
301	19208
301	19210
301	19212
301	19214
301	19216
301	19218
301	19220
302	19222
301	19224
302	19226
302	19228
302	19230
302	19232
302	19234
302	19236
302	19238
302	19240
302	19243
302	19245
302	19247
302	19249
302	19251
302	19253
302	19255
303	19257
303	19259
303	19261
303	19263
303	19265
303	19267
303	19269
303	19271
303	19273
303	19275
303	19277
303	19279
303	19281
303	19283
304	19286
303	19288
303	19290
303	19292
303	19294
303	19296
303	19298
303	19300
303	19302
304	19304
304	19306
304	19308
304	19310
304	19312
304	19314
304	19316
305	19318
305	19320
306	19322
306	19324
307	19326
306	19328
307	19330
307	19332
308	19334
308	19336
309	19338
309	19340
310	19342
310	19344
311	19346
311	19348
312	19350
313	19352
313	19354
314	19356
313	19358
314	19360
314	19362
314	19364
314	19366
314	19368
314	19371
314	19373
314	19375
314	19377
314	19379
313	19381
313	19383
313	19385
312	19387
311	19389
311	19391
310	19393
310	19395
309	19397
309	19399
308	19401
308	19403
307	19405
307	19407
306	19409
306	19411
306	19414
306	19416
305	19418
305	19420
305	19422
304	19424
305	19426
304	19428
304	19430
304	19432
303	19434
303	19436
303	19438
303	19440
303	19442
303	19444
303	19446
304	19448
304	19450
304	19452
304	19454
304	19456
305	19458
307	19460
309	19462
313	19464
318	19466
324	19468
331	19470
340	19472
349	19474
357	19476
365	19478
372	19480
376	19482
379	19484
380	19486
380	19488
377	19490
373	19492
369	19494
364	19496
358	19499
352	19501
344	19503
338	19505
332	19507
326	19509
321	19511
316	19513
312	19515
308	19517
305	19519
303	19521
301	19523
299	19525
298	19527
298	19529
297	19531
296	19533
296	19535
295	19537
295	19539
295	19542
294	19544
294	19546
294	19548
294	19550
293	19552
293	19554
293	19556
293	19558
293	19560
293	19562
293	19564
293	19566
293	19568
293	19570
293	19572
294	19574
294	19576
294	19578
294	19580
294	19582
295	19584
295	19586
295	19588
295	19590
295	19592
295	19594
295	19596
296	19598
296	19600
296	19602
296	19604
296	19606
297	19608
297	19610
297	19612
298	19614
298	19616
298	19618
298	19620
298	19622
299	19624
299	19627
299	19629
300	19631
300	19633
300	19635
301	19637
301	19639
301	19641
301	19643
302	19645
302	19647
303	19649
303	19651
303	19653
304	19655
304	19657
305	19659
305	19661
306	19663
306	19665
307	19667
307	19670
307	19672
308	19674
309	19676
309	19678
310	19680
310	19682
311	19684
311	19686
312	19688
312	19690
313	19692
314	19694
314	19696
315	19698
316	19700
316	19702
317	19704
318	19706
318	19708
319	19710
319	19712
319	19714
320	19716
320	19718
320	19720
321	19722
321	19724
321	19726
321	19728
322	19730
322	19732
322	19734
322	19736
322	19738
322	19740
322	19742
322	19744
322	19746
321	19748
321	19750
320	19752
320	19755
319	19757
318	19759
317	19761
317	19763
315	19765
315	19767
314	19769
313	19771
312	19773
310	19775
309	19777
308	19779
307	19781
306	19783
305	19785
304	19787
303	19789
302	19791
300	19793
300	19795
299	19798
298	19800
297	19802
296	19804
295	19806
294	19808
294	19810
293	19812
292	19814
292	19816
291	19818
290	19820
289	19822
289	19824
288	19826
288	19828
287	19830
287	19832
287	19834
286	19836
286	19838
286	19840
286	19842
285	19844
285	19846
285	19848
285	19850
285	19852
285	19854
285	19856
284	19858
284	19860
284	19862
284	19864
284	19866
284	19868
284	19870
284	19872
284	19874
284	19876
284	19878
284	19880
284	19883
284	19885
285	19887
285	19889
285	19891
286	19893
286	19895
286	19897
286	19899
287	19901
287	19903
287	19905
287	19907
287	19909
287	19911
287	19913
288	19915
288	19917
288	19919
288	19921
288	19923
288	19926
288	19928
289	19930
289	19932
289	19934
289	19936
289	19938
290	19940
289	19942
290	19944
290	19946
290	19948
291	19950
291	19952
290	19954
290	19956
290	19958
290	19960
290	19962
290	19964
290	19966
290	19968
290	19970
291	19972
291	19974
290	19976
290	19978
291	19980
291	19982
291	19984
291	19986
291	19988
291	19990
291	19992
291	19994
291	19996
291	19998
292	20000
292	20002
292	20004
293	20006
293	20008
293	20011
293	20013
292	20015
292	20017
292	20019
292	20021
293	20023
293	20025
293	20027
293	20029
293	20031
293	20033
293	20035
294	20037
294	20039
294	20041
294	20043
294	20045
294	20047
294	20049
294	20051
294	20054
294	20056
293	20058
293	20060
292	20062
292	20064
292	20066
292	20068
292	20070
292	20072
292	20074
292	20076
293	20078
293	20080
292	20082
292	20084
292	20086
292	20088
292	20090
292	20092
292	20094
292	20096
293	20098
293	20100
293	20102
294	20104
294	20106
294	20108
294	20110
294	20112
294	20114
295	20116
294	20118
294	20120
294	20122
294	20124
294	20126
295	20128
295	20130
295	20132
295	20134
296	20136
296	20139
296	20141
296	20143
296	20145
296	20147
296	20149
296	20151
296	20153
296	20155
296	20157
296	20159
296	20161
296	20163
296	20165
296	20167
296	20169
296	20171
296	20173
296	20175
296	20177
296	20179
296	20182
296	20184
296	20186
296	20188
296	20190
296	20192
296	20194
296	20196
296	20198
296	20200
297	20202
296	20204
297	20206
296	20208
297	20210
297	20212
297	20214
297	20216
297	20218
298	20220
298	20222
298	20224
299	20226
299	20228
299	20230
300	20232
300	20234
300	20236
301	20238
301	20240
302	20242
302	20244
303	20246
303	20248
304	20250
305	20252
305	20254
305	20256
306	20258
306	20260
306	20262
306	20264
307	20267
307	20269
307	20271
307	20273
307	20275
308	20277
308	20279
308	20281
308	20283
307	20285
307	20287
306	20289
306	20291
305	20293
305	20295
305	20297
305	20299
304	20301
304	20303
303	20305
302	20307
301	20310
300	20312
300	20314
299	20316
299	20318
299	20320
299	20322
299	20324
299	20326
299	20328
299	20330
299	20332
300	20334
299	20336
300	20338
299	20340
299	20342
300	20344
299	20346
300	20348
300	20350
300	20352
301	20354
301	20356
302	20358
303	20360
304	20362
307	20364
310	20366
315	20368
321	20370
328	20372
337	20374
346	20376
355	20378
363	20380
371	20382
376	20384
379	20386
380	20388
380	20390
378	20392
375	20395
371	20397
367	20399
361	20401
355	20403
349	20405
342	20407
336	20409
329	20411
324	20413
319	20415
314	20417
311	20419
308	20421
305	20423
303	20425
301	20427
300	20429
299	20431
298	20433
297	20435
296	20438
295	20440
294	20442
294	20444
294	20446
293	20448
293	20450
292	20452
292	20454
291	20456
291	20458
290	20460
290	20462
290	20464
290	20466
290	20468
289	20470
289	20472
289	20474
289	20476
289	20478
290	20480
290	20482
290	20484
290	20486
290	20488
290	20490
290	20492
291	20494
291	20496
291	20498
292	20500
292	20502
292	20504
291	20506
291	20508
291	20510
290	20512
291	20514
291	20516
291	20518
292	20520
292	20523
293	20525
293	20527
293	20529
293	20531
294	20533
294	20535
295	20537
296	20539
296	20541
297	20543
297	20545
297	20547
298	20549
299	20551
299	20553
299	20555
300	20557
300	20559
300	20561
301	20563
301	20566
301	20568
302	20570
302	20572
303	20574
303	20576
304	20578
304	20580
305	20582
306	20584
306	20586
307	20588
307	20590
308	20592
309	20594
310	20596
310	20598
311	20600
311	20602
312	20604
313	20606
313	20608
314	20610
315	20612
315	20614
316	20616
316	20618
316	20620
317	20622
317	20624
317	20626
318	20628
318	20630
319	20632
319	20634
319	20636
320	20638
320	20640
320	20642
320	20644
320	20646
319	20648
319	20651
319	20653
318	20655
318	20657
317	20659
316	20661
315	20663
314	20665
314	20667
313	20669
312	20671
311	20673
310	20675
309	20677
308	20679
307	20681
306	20683
305	20685
304	20687
303	20689
302	20691
301	20694
300	20696
299	20698
298	20700
297	20702
296	20704
296	20706
295	20708
295	20710
294	20712
294	20714
293	20716
292	20718
292	20720
291	20722
291	20724
290	20726
289	20728
289	20730
289	20732
288	20734
288	20736
287	20738
287	20740
286	20742
286	20744
286	20746
286	20748
286	20750
285	20752
285	20754
285	20756
286	20758
285	20760
285	20762
285	20764
285	20766
285	20768
285	20770
285	20772
285	20774
285	20776
286	20779
286	20781
285	20783
286	20785
285	20787
285	20789
285	20791
285	20793
286	20795
286	20797
286	20799
287	20801
287	20803
288	20805
288	20807
288	20809
289	20811
289	20813
288	20815
288	20817
288	20819
289	20822
289	20824
289	20826
290	20828
290	20830
290	20832
290	20834
290	20836
290	20838
291	20840
291	20842
292	20844
292	20846
292	20848
292	20850
292	20852
292	20854
292	20856
292	20858
292	20860
292	20862
292	20864
293	20866
293	20868
293	20870
293	20872
293	20874
293	20876
292	20878
293	20880
293	20882
293	20884
294	20886
294	20888
294	20890
294	20892
294	20894
294	20896
295	20898
295	20900
295	20902
295	20904
294	20907
294	20909
294	20911
294	20913
295	20915
295	20917
295	20919
295	20921
295	20923
295	20925
295	20927
295	20929
295	20931
295	20933
295	20935
296	20937
296	20939
296	20941
297	20943
297	20945
297	20947
297	20950
297	20952
296	20954
296	20956
297	20958
297	20960
297	20962
297	20964
298	20966
297	20968
298	20970
297	20972
297	20974
297	20976
298	20978
298	20980
298	20982
298	20984
298	20986
298	20988
298	20990
298	20992
298	20994
298	20996
298	20998
298	21000
298	21002
298	21004
298	21006
298	21008
298	21010
298	21012
299	21014
299	21016
299	21018
299	21020
299	21022
299	21024
299	21026
299	21028
300	21030
300	21032
300	21035
300	21037
300	21039
300	21041
300	21043
300	21045
300	21047
300	21049
300	21051
300	21053
300	21055
301	21057
300	21059
301	21061
301	21063
301	21065
301	21067
301	21069
300	21071
300	21073
300	21075
300	21078
300	21080
301	21082
301	21084
302	21086
301	21088
300	21090
300	21092
300	21094
300	21096
301	21098
301	21100
301	21102
301	21104
302	21106
302	21108
302	21110
302	21112
302	21114
303	21116
302	21118
303	21120
303	21122
303	21124
303	21126
303	21128
303	21130
303	21132
303	21134
303	21136
303	21138
304	21140
303	21142
304	21144
304	21146
304	21148
304	21150
305	21152
305	21154
305	21156
305	21158
306	21160
306	21163
306	21165
307	21167
307	21169
308	21171
308	21173
308	21175
309	21177
309	21179
310	21181
310	21183
310	21185
310	21187
310	21189
311	21191
311	21193
311	21195
311	21197
311	21199
311	21201
311	21203
311	21206
311	21208
311	21210
310	21212
310	21214
310	21216
309	21218
309	21220
309	21222
308	21224
308	21226
308	21228
308	21230
307	21232
307	21234
306	21236
306	21238
306	21240
306	21242
305	21244
305	21246
305	21248
304	21250
304	21252
304	21254
304	21256
304	21258
304	21260
304	21262
303	21264
303	21266
303	21268
303	21270
303	21272
303	21274
303	21276
303	21278
303	21280
304	21282
304	21284
305	21286
308	21288
311	21291
316	21293
322	21295
329	21297
337	21299
346	21301
354	21303
361	21305
368	21307
373	21309
377	21311
378	21313
378	21315
376	21317
372	21319
368	21321
363	21323
357	21325
352	21327
345	21329
339	21331
332	21334
326	21336
321	21338
317	21340
312	21342
309	21344
306	21346
303	21348
301	21350
300	21352
299	21354
298	21356
297	21358
296	21360
296	21362
295	21364
295	21366
294	21368
294	21370
294	21372
294	21374
293	21376
293	21378
292	21380
292	21382
292	21384
292	21386
292	21388
292	21390
292	21392
292	21394
293	21396
293	21398
293	21400
293	21402
293	21404
293	21406
293	21408
293	21410
293	21412
293	21414
294	21416
294	21419
294	21421
295	21423
295	21425
295	21427
295	21429
296	21431
296	21433
296	21435
297	21437
297	21439
297	21441
297	21443
298	21445
298	21447
298	21449
298	21451
299	21453
299	21455
299	21457
300	21459
300	21462
300	21464
300	21466
300	21468
301	21470
301	21472
301	21474
302	21476
302	21478
303	21480
303	21482
303	21484
304	21486
305	21488
305	21490
306	21492
306	21494
307	21496
307	21498
308	21500
309	21502
309	21504
309	21506
310	21508
311	21510
311	21512
312	21514
313	21516
313	21518
314	21520
315	21522
315	21524
316	21526
317	21528
317	21530
318	21532
319	21534
319	21536
319	21538
319	21540
319	21542
319	21544
320	21547
321	21549
321	21551
322	21553
322	21555
323	21557
323	21559
324	21561
324	21563
324	21565
324	21567
324	21569
324	21571
323	21573
324	21575
323	21577
323	21579
322	21581
321	21583
321	21585
320	21587
319	21590
318	21592
317	21594
316	21596
314	21598
313	21600
311	21602
310	21604
309	21606
308	21608
308	21610
307	21612
306	21614
305	21616
304	21618
303	21620
302	21622
301	21624
300	21626
300	21628
299	21630
299	21632
298	21634
297	21636
297	21638
296	21640
296	21642
295	21644
295	21646
294	21648
294	21650
293	21652
293	21654
292	21656
292	21658
291	21660
290	21662
290	21664
289	21666
289	21668
289	21670
289	21672
289	21675
289	21677
289	21679
289	21681
289	21683
288	21685
289	21687
288	21689
288	21691
288	21693
288	21695
287	21697
287	21699
287	21701
287	21703
287	21705
288	21707
288	21709
289	21711
289	21713
289	21715
289	21718
288	21720
288	21722
288	21724
288	21726
288	21728
288	21730
289	21732
289	21734
289	21736
289	21738
289	21740
289	21742
289	21744
289	21746
290	21748
290	21750
290	21752
290	21754
291	21756
291	21758
291	21760
291	21762
291	21764
291	21766
292	21768
291	21770
291	21772
292	21774
292	21776
292	21778
292	21780
292	21782
293	21784
293	21786
293	21788
293	21790
293	21792
293	21794
293	21796
292	21798
292	21800
292	21803
292	21805
292	21807
293	21809
293	21811
293	21813
293	21815
293	21817
293	21819
294	21821
294	21823
294	21825
294	21827
294	21829
294	21831
295	21833
295	21835
295	21837
295	21839
295	21841
295	21843
295	21846
295	21848
295	21850
295	21852
295	21854
295	21856
296	21858
295	21860
295	21862
295	21864
296	21866
296	21868
296	21870
296	21872
296	21874
296	21876
296	21878
296	21880
297	21882
297	21884
297	21886
296	21888
296	21890
296	21892
296	21894
296	21896
297	21898
297	21900
297	21902
297	21904
296	21906
296	21908
296	21910
296	21912
296	21914
296	21916
296	21918
296	21920
296	21922
296	21924
296	21926
296	21928
296	21931
296	21933
296	21935
296	21937
296	21939
296	21941
296	21943
296	21945
296	21947
296	21949
297	21951
297	21953
297	21955
297	21957
297	21959
297	21961
297	21963
297	21965
297	21967
298	21969
298	21971
298	21974
298	21976
298	21978
298	21980
298	21982
298	21984
298	21986
297	21988
297	21990
297	21992
296	21994
296	21996
296	21998
297	22000
297	22002
297	22004
297	22006
298	22008
298	22010
298	22012
298	22014
298	22016
299	22018
300	22020
300	22022
301	22024
301	22026
302	22028
302	22030
303	22032
303	22034
304	22036
304	22038
305	22040
306	22042
307	22044
307	22046
308	22048
308	22050
308	22052
308	22054
309	22056
309	22059
309	22061
309	22063
309	22065
309	22067
309	22069
308	22071
308	22073
308	22075
308	22077
308	22079
308	22081
307	22083
307	22085
306	22087
305	22089
305	22091
304	22093
304	22095
303	22097
303	22099
303	22102
303	22104
302	22106
302	22108
302	22110
301	22112
300	22114
300	22116
300	22118
299	22120
299	22122
299	22124
298	22126
299	22128
299	22130
299	22132
298	22134
299	22136
299	22138
299	22140
299	22142
299	22144
299	22146
299	22148
299	22150
300	22152
301	22154
303	22156
307	22158
312	22160
318	22162
325	22164
333	22166
342	22168
351	22170
358	22172
366	22174
372	22176
376	22178
378	22180
377	22182
376	22184
373	22187
368	22189
363	22191
358	22193
351	22195
344	22197
337	22199
330	22201
325	22203
319	22205
314	22207
309	22209
305	22211
302	22213
300	22215
297	22217
296	22219
294	22221
294	22223
293	22225
292	22227
292	22230
291	22232
290	22234
290	22236
290	22238
289	22240
289	22242
289	22244
289	22246
289	22248
288	22250
288	22252
288	22254
288	22256
288	22258
288	22260
288	22262
288	22264
289	22266
289	22268
289	22270
289	22272
289	22274
289	22276
289	22278
290	22280
290	22282
290	22284
290	22286
290	22288
290	22290
291	22292
291	22294
291	22296
291	22298
292	22300
292	22302
292	22304
292	22306
293	22308
293	22310
293	22312
294	22315
294	22317
294	22319
294	22321
295	22323
295	22325
295	22327
295	22329
296	22331
296	22333
297	22335
297	22337
297	22339
298	22341
299	22343
299	22345
299	22347
299	22349
300	22351
300	22353
301	22355
301	22358
302	22360
302	22362
303	22364
303	22366
304	22368
305	22370
305	22372
306	22374
306	22376
307	22378
308	22380
308	22382
309	22384
310	22386
310	22388
311	22390
312	22392
313	22394
314	22396
314	22398
315	22400
315	22402
316	22404
317	22406
317	22408
318	22410
318	22412
318	22414
319	22416
319	22418
320	22420
320	22422
321	22424
321	22426
321	22428
321	22430
321	22432
321	22434
321	22436
321	22438
320	22440
320	22443
320	22445
319	22447
319	22449
318	22451
317	22453
317	22455
316	22457
315	22459
314	22461
313	22463
312	22465
311	22467
309	22469
308	22471
307	22473
306	22475
305	22477
304	22479
303	22481
302	22483
301	22486
300	22488
298	22490
297	22492
296	22494
295	22496
294	22498
294	22500
293	22502
292	22504
291	22506
290	22508
290	22510
289	22512
288	22514
288	22516
287	22518
287	22520
286	22522
286	22524
285	22526
285	22528
285	22530
284	22532
284	22534
284	22536
283	22538
283	22540
283	22542
283	22544
283	22546
282	22548
283	22550
283	22552
282	22554
282	22556
282	22558
282	22560
283	22562
282	22564
282	22566
283	22568
282	22571
283	22573
283	22575
283	22577
283	22579
282	22581
283	22583
283	22585
283	22587
283	22589
284	22591
284	22593
284	22595
284	22597
284	22599
285	22601
285	22603
285	22605
286	22607
286	22609
286	22611
286	22614
286	22616
286	22618
287	22620
287	22622
287	22624
287	22626
287	22628
287	22630
288	22632
288	22634
288	22636
288	22638
288	22640
289	22642
289	22644
289	22646
289	22648
289	22650
290	22652
290	22654
289	22656
290	22658
290	22660
290	22662
290	22664
290	22666
290	22668
290	22670
290	22672
290	22674
291	22676
291	22678
291	22680
291	22682
291	22684
291	22686
292	22688
292	22690
291	22692
292	22694
292	22696
292	22699
292	22701
292	22703
292	22705
292	22707
293	22709
293	22711
293	22713
293	22715
293	22717
293	22719
293	22721
293	22723
293	22725
293	22727
293	22729
293	22731
294	22733
294	22735
294	22737
294	22739
294	22742
294	22744
295	22746
295	22748
295	22750
295	22752
296	22754
296	22756
296	22758
297	22760
298	22762
298	22764
298	22766
299	22768
299	22770
299	22772
300	22774
300	22776
301	22778
302	22780
303	22782
303	22784
303	22786
304	22788
305	22790
305	22792
306	22794
306	22796
306	22798
307	22800
307	22802
307	22804
308	22806
308	22808
308	22810
308	22812
308	22814
308	22816
308	22818
307	22820
307	22822
307	22824
306	22827
305	22829
305	22831
304	22833
304	22835
303	22837
303	22839
302	22841
302	22843
301	22845
301	22847
300	22849
300	22851
299	22853
299	22855
299	22857
299	22859
298	22861
298	22863
298	22865
298	22867
297	22870
297	22872
297	22874
297	22876
297	22878
297	22880
297	22882
297	22884
297	22886
297	22888
297	22890
297	22892
297	22894
297	22896
298	22898
299	22900
301	22902
304	22904
309	22906
314	22908
322	22910
326	22912
335	22914
345	22916
353	22918
361	22920
369	22922
374	22924
378	22926
379	22928
378	22930
376	22932
373	22934
368	22936
364	22938
357	22940
351	22942
344	22944
338	22946
331	22948
325	22950
320	22952
315	22955
311	22957
307	22959
304	22961
301	22963
299	22965
297	22967
296	22969
295	22971
294	22973
294	22975
293	22977
292	22979
292	22981
291	22983
291	22985
290	22987
290	22989
289	22991
289	22993
289	22995
289	22998
289	23000
289	23002
288	23004
288	23006
288	23008
288	23010
288	23012
289	23014
289	23016
289	23018
289	23020
289	23022
289	23024
289	23026
289	23028
289	23030
290	23032
290	23034
290	23036
291	23038
291	23040
291	23042
291	23044
291	23046
292	23048
292	23050
292	23052
292	23054
293	23056
293	23058
293	23060
294	23062
294	23064
294	23066
295	23068
295	23070
295	23072
296	23074
296	23076
297	23078
297	23080
297	23083
298	23085
298	23087
299	23089
299	23091
299	23093
300	23095
301	23097
301	23099
302	23101
302	23103
303	23105
303	23107
304	23109
305	23111
305	23113
306	23115
307	23117
308	23119
308	23121
309	23123
310	23126
311	23128
312	23130
312	23132
313	23134
314	23136
315	23138
316	23140
317	23142
317	23144
318	23146
319	23148
319	23150
320	23152
321	23154
321	23156
322	23158
322	23160
323	23162
323	23164
324	23166
324	23168
324	23170
325	23172
325	23174
325	23176
325	23178
325	23180
324	23182
324	23184
324	23186
323	23188
323	23190
323	23192
322	23194
321	23196
320	23198
319	23200
318	23202
317	23204
316	23206
315	23208
314	23211
312	23213
311	23215
310	23217
309	23219
308	23221
307	23223
305	23225
304	23227
303	23229
301	23231
300	23233
299	23235
298	23237
297	23239
296	23241
295	23243
295	23245
294	23247
293	23249
292	23251
291	23254
291	23256
290	23258
290	23260
289	23262
288	23264
287	23266
287	23268
287	23270
286	23272
286	23274
285	23276
285	23278
285	23280
285	23282
284	23284
284	23286
284	23288
284	23290
284	23292
284	23294
284	23296
284	23298
283	23300
283	23302
283	23304
283	23306
283	23308
283	23310
283	23312
283	23314
283	23316
283	23318
284	23320
284	23322
284	23324
284	23326
284	23328
285	23330
285	23332
285	23334
285	23336
285	23339
286	23341
286	23343
286	23345
286	23347
286	23349
287	23351
287	23353
287	23355
287	23357
288	23359
288	23361
288	23363
288	23365
289	23367
288	23369
289	23371
289	23373
289	23375
289	23377
290	23379
290	23382
290	23384
291	23386
290	23388
291	23390
291	23392
291	23394
291	23396
291	23398
292	23400
292	23402
292	23404
292	23406
292	23408
292	23410
292	23412
292	23414
293	23416
293	23418
293	23420
293	23422
293	23424
293	23426
293	23428
293	23430
293	23432
294	23434
294	23436
294	23438
294	23440
294	23442
294	23444
295	23446
294	23448
295	23450
295	23452
295	23454
295	23456
295	23458
295	23460
295	23462
295	23464
296	23467
296	23469
296	23471
296	23473
296	23475
296	23477
296	23479
297	23481
297	23483
297	23485
298	23487
298	23489
298	23491
299	23493
299	23495
300	23497
300	23499
300	23501
300	23503
301	23505
302	23507
302	23510
303	23512
303	23514
304	23516
305	23518
305	23520
306	23522
307	23524
307	23526
308	23528
308	23530
309	23532
309	23534
309	23536
309	23538
309	23540
309	23542
309	23544
309	23546
309	23548
309	23550
309	23552
309	23554
308	23556
307	23558
307	23560
306	23562
305	23564
305	23566
304	23568
303	23570
303	23572
303	23574
302	23576
301	23578
301	23580
300	23582
300	23584
300	23586
299	23588
299	23590
298	23592
298	23595
297	23597
297	23599
297	23601
297	23603
297	23605
297	23607
297	23609
297	23611
297	23613
297	23615
297	23617
297	23619
297	23621
297	23623
297	23625
298	23627
298	23629
299	23631
301	23633
304	23635
309	23638
314	23640
321	23642
329	23644
339	23646
348	23648
357	23650
365	23652
372	23654
377	23656
380	23658
381	23660
380	23662
378	23664
374	23666
370	23668
365	23670
359	23672
352	23674
345	23676
339	23678
336	23680
330	23682
324	23684
320	23686
315	23688
311	23690
308	23692
305	23694
303	23696
301	23698
300	23700
298	23702
298	23704
297	23706
296	23708
295	23710
295	23712
294	23714
294	23716
294	23718
293	23720
293	23723
292	23725
291	23727
291	23729
291	23731
291	23733
291	23735
290	23737
290	23739
290	23741
290	23743
290	23745
290	23747
290	23749
290	23751
290	23753
290	23755
290	23757
291	23759
290	23761
290	23763
291	23766
291	23768
291	23770
291	23772
291	23774
291	23776
291	23778
292	23780
292	23782
292	23784
292	23786
293	23788
293	23790
293	23792
293	23794
293	23796
294	23798
294	23800
295	23802
295	23804
295	23806
296	23808
296	23810
297	23812
297	23814
297	23816
298	23818
298	23820
299	23822
299	23824
300	23826
300	23828
301	23830
301	23832
302	23834
302	23836
303	23838
304	23840
305	23842
305	23844
306	23846
307	23848
308	23851
308	23853
309	23855
310	23857
311	23859
311	23861
312	23863
313	23865
314	23867
315	23869
316	23871
317	23873
317	23875
318	23877
319	23879
320	23881
320	23883
321	23885
322	23887
322	23889
323	23891
323	23894
324	23896
324	23898
325	23900
325	23902
326	23904
326	23906
326	23908
326	23910
326	23912
326	23914
326	23916
326	23918
325	23920
325	23922
324	23924
323	23926
323	23928
321	23930
321	23932
320	23934
319	23936
318	23938
317	23940
316	23942
315	23944
314	23946
313	23948
312	23950
311	23952
310	23954
308	23956
307	23958
306	23960
305	23962
304	23964
303	23966
302	23968
301	23970
300	23972
299	23974
298	23976
297	23979
296	23981
295	23983
295	23985
294	23987
293	23989
293	23991
292	23993
292	23995
291	23997
291	23999
291	24001
290	24003
290	24005
290	24007
289	24009
289	24011
289	24013
288	24015
288	24017
288	24019
288	24022
288	24024
288	24026
288	24028
288	24030
288	24032
288	24034
288	24036
288	24038
288	24040
288	24042
289	24044
288	24046
289	24048
288	24050
289	24052
289	24054
289	24056
289	24058
289	24060
290	24062
290	24064
290	24066
290	24068
290	24070
290	24072
291	24074
291	24076
291	24078
291	24080
292	24082
292	24084
292	24086
292	24088
292	24090
293	24092
293	24094
293	24096
293	24098
293	24100
294	24102
294	24104
294	24107
294	24109
294	24111
294	24113
295	24115
295	24117
295	24119
295	24121
295	24123
296	24125
296	24127
296	24129
296	24131
296	24133
296	24135
296	24137
297	24139
297	24141
297	24143
297	24145
297	24147
297	24150
298	24152
297	24154
297	24156
297	24158
298	24160
298	24162
298	24164
298	24166
298	24168
298	24170
299	24172
299	24174
299	24176
299	24178
299	24180
299	24182
299	24184
299	24186
299	24188
299	24190
299	24192
299	24194
299	24196
299	24198
299	24200
299	24202
299	24204
299	24206
299	24208
299	24210
299	24212
300	24214
300	24216
300	24218
300	24220
300	24222
300	24224
300	24226
300	24228
300	24230
300	24232
300	24235
300	24237
300	24239
300	24241
300	24243
301	24245
300	24247
301	24249
301	24251
301	24253
301	24255
301	24257
301	24259
301	24261
301	24263
301	24265
301	24267
301	24269
301	24271
301	24273
301	24275
301	24278
301	24280
301	24282
301	24284
301	24286
301	24288
301	24290
301	24292
301	24294
302	24296
301	24298
302	24300
302	24302
301	24304
302	24306
302	24308
302	24310
302	24312
302	24314
302	24316
302	24318
302	24320
302	24322
302	24324
302	24326
302	24328
302	24330
303	24332
302	24334
302	24336
303	24338
303	24340
303	24342
303	24344
302	24346
303	24348
303	24350
302	24352
303	24354
303	24356
303	24358
303	24360
303	24363
303	24365
303	24367
303	24369
302	24371
303	24373
303	24375
303	24377
303	24379
303	24381
303	24383
303	24385
303	24387
303	24389
303	24391
303	24393
303	24395
304	24397
303	24399
304	24401
304	24403
304	24406
304	24408
304	24410
304	24412
304	24414
304	24416
304	24418
304	24420
304	24422
304	24424
304	24426
304	24428
304	24430
305	24432
305	24434
305	24436
305	24438
306	24440
306	24442
307	24444
307	24446
308	24448
308	24450
308	24452
308	24454
309	24456
309	24458
309	24460
310	24462
310	24464
311	24466
311	24468
311	24470
311	24472
312	24474
312	24476
312	24478
312	24480
312	24482
312	24484
312	24486
311	24488
312	24491
312	24493
312	24495
312	24497
312	24499
311	24501
311	24503
310	24505
310	24507
309	24509
309	24511
308	24513
308	24515
308	24517
307	24519
307	24521
306	24523
306	24525
306	24527
306	24529
305	24531
305	24534
305	24536
304	24538
304	24540
304	24542
304	24544
304	24546
304	24548
304	24550
304	24552
304	24554
303	24556
304	24558
304	24560
304	24562
304	24564
305	24566
305	24568
305	24570
307	24572
310	24574
312	24576
316	24578
322	24580
329	24582
337	24584
346	24586
355	24588
363	24590
371	24592
377	24594
382	24596
385	24598
385	24600
384	24602
381	24604
377	24606
372	24608
367	24610
360	24612
354	24614
347	24616
340	24619
334	24621
328	24623
323	24625
319	24627
315	24629
311	24631
308	24633
306	24635
304	24637
303	24639
302	24641
301	24643
300	24645
299	24647
298	24649
297	24651
296	24653
295	24655
295	24657
294	24659
294	24662
293	24664
293	24666
293	24668
292	24670
292	24672
292	24674
291	24676
291	24678
291	24680
291	24682
291	24684
291	24686
291	24688
291	24690
291	24692
291	24694
291	24696
291	24698
291	24700
291	24702
291	24704
291	24706
291	24708
291	24710
291	24712
291	24714
291	24716
291	24718
291	24720
291	24722
291	24724
292	24726
292	24728
292	24730
292	24732
292	24734
293	24736
293	24738
293	24740
293	24742
293	24744
293	24747
294	24749
294	24751
294	24753
295	24755
295	24757
295	24759
296	24761
296	24763
297	24765
297	24767
297	24769
298	24771
298	24773
299	24775
299	24777
300	24779
300	24781
301	24783
301	24785
302	24787
303	24790
303	24792
304	24794
304	24796
305	24798
305	24800
306	24802
307	24804
307	24806
308	24808
309	24810
309	24812
310	24814
310	24816
311	24818
312	24820
312	24822
313	24824
313	24826
314	24828
314	24830
314	24832
315	24834
315	24836
316	24838
316	24840
317	24842
317	24844
317	24846
317	24848
318	24850
318	24852
318	24854
318	24856
318	24858
318	24860
318	24862
318	24864
317	24866
317	24868
316	24870
316	24872
315	24875
314	24877
313	24879
313	24881
311	24883
310	24885
309	24887
308	24889
308	24891
307	24893
306	24895
305	24897
304	24899
303	24901
301	24903
300	24905
299	24907
299	24909
298	24911
297	24913
296	24915
296	24918
295	24920
294	24922
293	24924
292	24926
292	24928
291	24930
290	24932
290	24934
289	24936
289	24938
288	24940
288	24942
287	24944
287	24946
287	24948
286	24950
286	24952
285	24954
285	24956
285	24958
285	24960
285	24962
284	24964
285	24966
285	24968
284	24970
284	24972
284	24974
284	24976
284	24978
284	24980
284	24982
284	24984
284	24986
284	24988
284	24990
284	24992
284	24994
284	24996
284	24998
284	25000
285	25003
285	25005
285	25007
285	25009
285	25011
286	25013
286	25015
286	25017
286	25019
287	25021
287	25023
287	25025
287	25027
287	25029
287	25031
287	25033
287	25035
287	25037
288	25039
288	25041
288	25043
288	25046
288	25048
289	25050
288	25052
289	25054
289	25056
289	25058
289	25060
289	25062
290	25064
290	25066
290	25068
290	25070
290	25072
290	25074
291	25076
291	25078
291	25080
291	25082
291	25084
291	25086
291	25088
291	25090
292	25092
292	25094
292	25096
292	25098
292	25100
292	25102
293	25104
292	25106
292	25108
292	25110
292	25112
292	25114
292	25116
292	25118
293	25120
293	25122
293	25124
293	25126
293	25128
293	25131
293	25133
293	25135
294	25137
293	25139
294	25141
294	25143
294	25145
294	25147
294	25149
294	25151
294	25153
294	25155
294	25157
294	25159
294	25161
294	25163
295	25165
295	25167
295	25169
295	25171
295	25174
295	25176
296	25178
296	25180
296	25182
296	25184
296	25186
296	25188
296	25190
296	25192
296	25194
296	25196
297	25198
297	25200
297	25202
297	25204
297	25206
297	25208
297	25210
297	25212
297	25214
297	25216
297	25218
298	25220
298	25222
298	25224
298	25226
298	25228
298	25230
298	25232
298	25234
299	25236
299	25238
299	25240
299	25242
299	25244
299	25246
300	25248
300	25250
299	25252
300	25254
300	25256
300	25259
300	25261
300	25263
300	25265
300	25267
300	25269
300	25271
300	25273
300	25275
300	25277
301	25279
301	25281
301	25283
301	25285
301	25287
301	25289
301	25291
301	25293
301	25295
301	25297
301	25299
301	25302
301	25304
301	25306
301	25308
301	25310
301	25312
301	25314
301	25316
301	25318
301	25320
301	25322
301	25324
301	25326
302	25328
302	25330
302	25332
302	25334
302	25336
302	25338
302	25340
302	25342
302	25344
302	25346
302	25348
302	25350
302	25352
302	25354
302	25356
302	25358
303	25360
302	25362
303	25364
302	25366
302	25368
302	25370
303	25372
302	25374
303	25376
303	25378
303	25380
303	25382
303	25384
303	25387
303	25389
303	25391
303	25393
303	25395
303	25397
304	25399
303	25401
304	25403
304	25405
304	25407
304	25409
304	25411
304	25413
304	25415
304	25417
304	25419
304	25421
305	25423
305	25425
305	25427
305	25430
305	25432
305	25434
305	25436
305	25438
306	25440
306	25442
306	25444
306	25446
307	25448
307	25450
307	25452
307	25454
308	25456
308	25458
309	25460
309	25462
309	25464
310	25466
310	25468
311	25470
311	25472
312	25474
312	25476
313	25478
313	25480
313	25482
314	25484
314	25486
314	25488
314	25490
314	25492
314	25494
314	25496
314	25498
314	25500
313	25502
313	25504
313	25506
313	25508
313	25510
313	25512
312	25515
312	25517
311	25519
311	25521
310	25523
310	25525
309	25527
309	25529
309	25531
308	25533
308	25535
308	25537
307	25539
307	25541
307	25543
306	25545
306	25547
306	25549
306	25551
306	25553
305	25555
305	25558
305	25560
305	25562
305	25564
305	25566
305	25568
305	25570
305	25572
306	25574
306	25576
306	25578
307	25580
308	25582
310	25584
313	25586
317	25588
323	25590
330	25592
338	25594
347	25596
355	25598
359	25600
366	25602
373	25604
378	25606
381	25608
381	25610
381	25612
378	25614
374	25616
370	25618
365	25620
359	25622
352	25624
345	25626
339	25628
333	25630
326	25632
321	25634
316	25636
312	25638
309	25640
306	25643
303	25645
302	25647
300	25649
299	25651
298	25653
297	25655
297	25657
296	25659
296	25661
296	25663
295	25665
295	25667
294	25669
294	25671
294	25673
294	25675
294	25677
294	25679
293	25681
293	25683
293	25686
293	25688
293	25690
293	25692
293	25694
293	25696
293	25698
293	25700
293	25702
294	25704
294	25706
294	25708
294	25710
294	25712
294	25714
294	25716
294	25718
294	25720
295	25722
295	25724
295	25726
295	25728
296	25730
296	25732
296	25734
296	25736
297	25738
297	25740
297	25742
297	25744
298	25746
298	25748
298	25750
298	25752
299	25754
299	25756
299	25758
300	25760
300	25762
300	25764
301	25766
301	25768
302	25771
302	25773
302	25775
303	25777
303	25779
303	25781
304	25783
304	25785
305	25787
305	25789
306	25791
306	25793
306	25795
306	25797
307	25799
307	25801
308	25803
309	25805
309	25807
310	25809
310	25811
311	25814
311	25816
312	25818
312	25820
313	25822
314	25824
314	25826
315	25828
315	25830
316	25832
316	25834
317	25836
317	25838
318	25840
318	25842
318	25844
319	25846
319	25848
319	25850
320	25852
320	25854
321	25856
321	25858
321	25860
321	25862
321	25864
321	25866
321	25868
321	25870
321	25872
321	25874
321	25876
320	25878
320	25880
319	25882
318	25884
318	25886
317	25888
316	25890
315	25892
314	25894
314	25896
313	25899
312	25901
310	25903
310	25905
309	25907
308	25909
307	25911
306	25913
305	25915
304	25917
303	25919
302	25921
301	25923
300	25925
299	25927
298	25929
298	25931
297	25933
296	25935
295	25937
294	25939
293	25942
293	25944
292	25946
292	25948
291	25950
291	25952
290	25954
290	25956
289	25958
289	25960
289	25962
288	25964
288	25966
287	25968
287	25970
287	25972
287	25974
286	25976
286	25978
286	25980
286	25982
286	25984
286	25986
286	25988
286	25990
286	25992
286	25994
286	25996
286	25998
286	26000
286	26002
287	26004
287	26006
287	26008
287	26010
287	26012
287	26014
287	26016
287	26018
287	26020
288	26022
288	26024
288	26027
288	26029
288	26031
288	26033
288	26035
289	26037
289	26039
289	26041
289	26043
289	26045
289	26047
290	26049
290	26051
290	26053
290	26055
290	26057
290	26059
290	26061
290	26063
291	26065
291	26067
291	26070
291	26072
291	26074
291	26076
291	26078
292	26080
292	26082
292	26084
292	26086
292	26088
292	26090
292	26092
292	26094
292	26096
292	26098
292	26100
293	26102
293	26104
293	26106
293	26108
293	26110
293	26112
293	26114
293	26116
293	26118
293	26120
293	26122
293	26124
293	26126
293	26128
293	26130
293	26132
294	26134
294	26136
294	26138
294	26140
294	26142
294	26144
294	26146
294	26148
294	26150
295	26152
295	26155
295	26157
295	26159
295	26161
295	26163
295	26165
295	26167
295	26169
295	26171
295	26173
295	26175
295	26177
295	26179
295	26181
296	26183
296	26185
296	26187
296	26189
296	26191
296	26193
296	26195
296	26198
296	26200
296	26202
296	26204
296	26206
296	26208
296	26210
296	26212
296	26214
296	26216
296	26218
296	26220
296	26222
296	26224
296	26226
296	26228
296	26230
296	26232
296	26234
296	26236
297	26238
297	26240
297	26242
297	26244
297	26246
297	26248
297	26250
297	26252
297	26254
297	26256
297	26258
298	26260
297	26262
298	26264
298	26266
298	26268
298	26270
298	26272
298	26274
298	26276
298	26278
298	26280
298	26283
298	26285
298	26287
298	26289
298	26291
298	26293
298	26295
299	26297
299	26299
299	26301
299	26303
299	26305
299	26307
299	26309
299	26311
299	26313
299	26315
299	26317
299	26319
299	26321
299	26323
299	26326
300	26328
299	26330
299	26332
300	26334
299	26336
299	26338
300	26340
300	26342
300	26344
300	26346
300	26348
300	26350
300	26352
300	26354
300	26356
300	26358
300	26360
300	26362
300	26364
300	26366
300	26368
300	26370
301	26372
300	26374
301	26376
301	26378
301	26380
300	26382
300	26384
300	26386
300	26388
300	26390
300	26392
301	26394
301	26396
301	26398
301	26400
301	26402
301	26404
301	26406
301	26408
301	26411
301	26413
301	26415
301	26417
302	26419
302	26421
302	26423
303	26425
303	26427
303	26429
304	26431
304	26433
304	26435
304	26437
305	26439
305	26441
305	26443
306	26445
306	26447
307	26449
307	26451
308	26454
308	26456
308	26458
308	26460
308	26462
308	26464
308	26466
308	26468
308	26470
308	26472
308	26474
308	26476
309	26478
308	26480
308	26482
308	26484
307	26486
307	26488
306	26490
306	26492
306	26494
305	26496
305	26498
305	26500
304	26502
304	26504
303	26506
303	26508
303	26510
303	26512
302	26514
302	26516
302	26518
301	26520
302	26522
301	26524
301	26526
301	26528
301	26530
301	26532
301	26534
300	26536
300	26539
300	26541
300	26543
301	26545
301	26547
301	26549
301	26551
301	26553
302	26555
304	26557
307	26559
311	26561
317	26563
323	26565
331	26567
340	26569
349	26571
358	26573
366	26575
373	26577
378	26579
381	26582
382	26584
381	26586
379	26588
375	26590
371	26592
366	26594
360	26596
353	26598
347	26600
340	26602
334	26604
328	26606
323	26608
318	26610
314	26612
310	26614
307	26616
304	26618
302	26620
301	26622
300	26624
299	26626
298	26628
297	26630
296	26632
295	26634
295	26636
294	26638
293	26640
293	26642
292	26644
292	26646
292	26648
292	26650
291	26652
291	26654
291	26656
291	26658
291	26660
291	26662
291	26664
291	26667
291	26669
291	26671
291	26673
291	26675
291	26677
291	26679
291	26681
291	26683
291	26685
291	26687
291	26689
291	26691
292	26693
292	26695
292	26697
292	26699
292	26701
292	26703
292	26705
293	26707
293	26710
293	26712
294	26714
294	26716
294	26718
294	26720
295	26722
295	26724
295	26726
295	26728
296	26730
296	26732
296	26734
297	26736
297	26738
297	26740
298	26742
298	26744
298	26746
299	26748
299	26750
299	26752
300	26754
300	26756
301	26758
302	26760
302	26762
303	26764
303	26766
304	26768
304	26770
305	26772
306	26774
306	26776
307	26778
308	26780
309	26782
309	26784
310	26786
311	26788
311	26790
312	26792
313	26795
313	26797
314	26799
315	26801
315	26803
316	26805
316	26807
317	26809
317	26811
318	26813
319	26815
319	26817
320	26819
320	26821
321	26823
321	26825
321	26827
322	26829
322	26831
322	26833
322	26835
322	26838
322	26840
322	26842
321	26844
321	26846
320	26848
320	26850
319	26852
319	26854
318	26856
317	26858
316	26860
316	26862
314	26864
314	26866
313	26868
312	26870
311	26872
310	26874
308	26876
307	26878
306	26880
305	26882
304	26884
303	26886
302	26888
301	26890
300	26892
299	26894
298	26896
297	26898
296	26900
295	26902
295	26904
294	26906
293	26908
292	26910
292	26912
291	26914
290	26916
290	26918
289	26920
288	26923
288	26925
288	26927
287	26929
287	26931
286	26933
286	26935
286	26937
286	26939
285	26941
285	26943
285	26945
285	26947
285	26949
284	26951
284	26953
284	26955
284	26957
284	26959
284	26961
284	26963
284	26966
284	26968
284	26970
285	26972
285	26974
285	26976
285	26978
285	26980
285	26982
285	26984
286	26986
285	26988
285	26990
286	26992
286	26994
286	26996
286	26998
286	27000
287	27002
287	27004
287	27006
287	27008
287	27010
288	27012
288	27014
288	27016
288	27018
288	27020
289	27022
289	27024
289	27026
289	27028
290	27030
290	27032
290	27034
290	27036
290	27038
290	27040
291	27042
291	27044
291	27046
291	27048
292	27051
292	27053
292	27055
292	27057
292	27059
292	27061
292	27063
292	27065
292	27067
292	27069
292	27071
292	27073
292	27075
292	27077
292	27079
293	27081
293	27083
293	27085
293	27087
293	27089
293	27091
293	27094
293	27096
293	27098
293	27100
293	27102
294	27104
294	27106
294	27108
294	27110
294	27112
294	27114
294	27116
294	27118
294	27120
294	27122
294	27124
295	27126
295	27128
294	27130
294	27132
294	27134
294	27136
295	27138
295	27140
295	27142
295	27144
295	27146
295	27148
294	27150
295	27152
294	27154
295	27156
295	27158
295	27160
295	27162
295	27164
296	27166
296	27168
296	27170
296	27172
296	27174
296	27176
296	27179
296	27181
296	27183
296	27185
296	27187
296	27189
296	27191
296	27193
296	27195
297	27197
297	27199
297	27201
297	27203
297	27205
297	27207
297	27209
297	27211
297	27213
297	27215
297	27217
297	27219
297	27222
298	27224
298	27226
298	27228
298	27230
298	27232
298	27234
298	27236
298	27238
298	27240
298	27242
299	27244
298	27246
299	27248
299	27250
299	27252
299	27254
299	27256
299	27258
299	27260
299	27262
299	27264
300	27266
300	27268
300	27270
300	27272
300	27274
300	27276
300	27278
300	27280
301	27282
300	27284
300	27286
300	27288
301	27290
301	27292
301	27294
301	27296
301	27298
301	27300
301	27302
301	27304
301	27307
301	27309
301	27311
301	27313
301	27315
301	27317
301	27319
302	27321
302	27323
302	27325
302	27327
303	27329
303	27331
303	27333
303	27335
304	27337
304	27339
304	27341
305	27343
305	27345
306	27347
306	27350
307	27352
307	27354
308	27356
308	27358
308	27360
308	27362
308	27364
308	27366
308	27368
308	27370
308	27372
308	27374
308	27376
308	27378
308	27380
308	27382
308	27384
308	27386
308	27388
308	27390
308	27392
307	27394
307	27396
307	27398
307	27400
306	27402
306	27404
305	27406
305	27408
305	27410
304	27412
304	27414
304	27416
304	27418
303	27420
303	27422
303	27424
303	27426
303	27428
303	27430
303	27432
302	27435
302	27437
302	27439
302	27441
302	27443
302	27445
302	27447
302	27449
302	27451
302	27453
302	27455
302	27457
303	27459
304	27461
305	27463
308	27465
311	27467
316	27469
322	27471
329	27473
338	27475
347	27478
355	27480
364	27482
372	27484
378	27486
382	27488
383	27490
383	27492
381	27494
378	27496
374	27498
370	27500
364	27502
358	27504
351	27506
345	27508
339	27510
333	27512
327	27514
322	27516
318	27518
316	27520
312	27522
309	27524
307	27526
305	27528
304	27530
302	27532
301	27534
300	27536
299	27538
298	27540
298	27542
297	27544
296	27546
296	27548
295	27550
295	27552
294	27554
294	27556
293	27558
293	27560
293	27563
293	27565
293	27567
293	27569
292	27571
292	27573
292	27575
292	27577
292	27579
292	27581
292	27583
293	27585
293	27587
293	27589
293	27591
293	27593
293	27595
293	27597
293	27599
293	27601
293	27603
293	27606
294	27608
294	27610
294	27612
294	27614
294	27616
294	27618
294	27620
295	27622
295	27624
295	27626
295	27628
296	27630
296	27632
296	27634
297	27636
297	27638
297	27640
298	27642
298	27644
298	27646
298	27648
299	27650
299	27652
300	27654
300	27656
300	27658
301	27660
301	27662
302	27664
303	27666
303	27668
304	27670
304	27672
305	27674
305	27676
306	27678
307	27680
307	27682
308	27684
309	27686
310	27688
310	27691
311	27693
312	27695
312	27697
313	27699
314	27701
314	27703
315	27705
316	27707
316	27709
317	27711
318	27713
318	27715
319	27717
319	27719
320	27721
320	27723
321	27725
322	27727
322	27729
322	27731
323	27734
323	27736
323	27738
323	27740
323	27742
324	27744
323	27746
323	27748
323	27750
322	27752
322	27754
321	27756
321	27758
320	27760
320	27762
319	27764
318	27766
317	27768
317	27770
315	27772
314	27774
314	27776
313	27778
311	27780
310	27782
309	27784
308	27786
307	27788
306	27790
305	27792
303	27794
302	27796
301	27798
300	27800
299	27802
298	27804
297	27806
296	27808
295	27810
294	27812
294	27814
293	27816
292	27819
291	27821
291	27823
290	27825
289	27827
289	27829
288	27831
288	27833
287	27835
287	27837
287	27839
286	27841
286	27843
285	27845
285	27847
285	27849
285	27851
285	27853
284	27855
284	27857
284	27859
284	27862
284	27864
284	27866
284	27868
284	27870
284	27872
284	27874
284	27876
284	27878
284	27880
284	27882
284	27884
284	27886
285	27888
285	27890
285	27892
285	27894
285	27896
285	27898
286	27900
286	27902
286	27904
286	27906
286	27908
287	27910
287	27912
287	27914
287	27916
288	27918
288	27920
288	27922
289	27924
289	27926
289	27928
289	27930
289	27932
290	27934
290	27936
290	27938
290	27940
290	27942
291	27944
291	27947
291	27949
291	27951
291	27953
292	27955
292	27957
292	27959
292	27961
292	27963
292	27965
292	27967
293	27969
292	27971
293	27973
293	27975
293	27977
293	27979
293	27981
293	27983
293	27985
294	27987
293	27990
294	27992
294	27994
294	27996
294	27998
294	28000
294	28002
294	28004
294	28006
295	28008
295	28010
295	28012
295	28014
295	28016
296	28018
295	28020
296	28022
296	28024
296	28026
296	28028
296	28030
296	28032
296	28034
296	28036
296	28038
297	28040
297	28042
297	28044
297	28046
297	28048
297	28050
297	28052
297	28054
297	28056
297	28058
297	28060
297	28062
297	28064
297	28066
297	28068
297	28070
297	28072
297	28075
298	28077
298	28079
298	28081
298	28083
298	28085
298	28087
298	28089
298	28091
298	28093
298	28095
298	28097
299	28099
299	28101
299	28103
299	28105
299	28107
299	28109
299	28111
299	28113
299	28115
299	28118
299	28120
300	28122
300	28124
300	28126
300	28128
300	28130
300	28132
300	28134
300	28136
300	28138
300	28140
300	28142
300	28144
300	28146
300	28148
300	28150
300	28152
300	28154
300	28156
300	28158
300	28160
300	28162
300	28164
300	28166
300	28168
300	28170
300	28172
300	28174
300	28176
300	28178
300	28180
300	28182
300	28184
301	28186
301	28188
301	28190
301	28192
301	28194
301	28196
301	28198
301	28200
301	28203
301	28205
301	28207
301	28209
301	28211
301	28213
301	28215
302	28217
302	28219
302	28221
302	28223
302	28225
302	28227
302	28229
302	28231
302	28233
302	28235
302	28237
303	28239
303	28241
303	28243
303	28246
303	28248
303	28250
303	28252
303	28254
304	28256
304	28258
304	28260
305	28262
305	28264
305	28266
306	28268
306	28270
306	28272
307	28274
307	28276
307	28278
308	28280
308	28282
309	28284
309	28286
309	28288
310	28290
310	28292
310	28294
310	28296
310	28298
310	28300
310	28302
310	28304
310	28306
310	28308
310	28310
310	28312
310	28314
310	28316
310	28318
310	28320
310	28322
309	28324
309	28326
309	28328
308	28331
308	28333
307	28335
307	28337
306	28339
306	28341
306	28343
306	28345
306	28347
305	28349
305	28351
305	28353
305	28355
305	28357
304	28359
304	28361
304	28363
304	28365
303	28367
303	28369
303	28371
303	28374
303	28376
303	28378
303	28380
304	28382
304	28384
304	28386
304	28388
305	28390
306	28392
308	28394
312	28396
316	28398
322	28400
328	28402
337	28404
346	28406
354	28408
362	28410
369	28412
376	28414
378	28416
381	28418
382	28420
381	28422
379	28424
375	28426
371	28428
366	28430
360	28432
353	28434
347	28436
340	28438
334	28440
328	28442
323	28444
318	28446
314	28448
311	28450
308	28452
305	28454
304	28456
302	28459
301	28461
300	28463
299	28465
298	28467
298	28469
296	28471
296	28473
295	28475
295	28477
294	28479
294	28481
294	28483
293	28485
293	28487
293	28489
293	28491
292	28493
292	28495
292	28497
292	28499
292	28502
292	28504
292	28506
292	28508
292	28510
292	28512
292	28514
292	28516
293	28518
293	28520
293	28522
293	28524
293	28526
293	28528
293	28530
293	28532
293	28534
293	28536
294	28538
294	28540
294	28542
295	28544
295	28546
295	28548
295	28550
295	28552
296	28554
296	28556
296	28558
297	28560
297	28562
297	28564
297	28566
298	28568
298	28570
299	28572
299	28574
299	28576
300	28578
300	28580
300	28582
301	28584
301	28587
302	28589
302	28591
303	28593
303	28595
303	28597
304	28599
304	28601
305	28603
305	28605
306	28607
306	28609
307	28611
308	28613
308	28615
309	28617
310	28619
311	28621
311	28623
312	28625
313	28627
313	28630
314	28632
315	28634
315	28636
316	28638
317	28640
318	28642
318	28644
319	28646
319	28648
320	28650
320	28652
321	28654
321	28656
322	28658
322	28660
322	28662
323	28664
323	28666
323	28668
323	28670
323	28672
323	28674
323	28676
323	28678
323	28680
323	28682
323	28684
322	28686
321	28688
321	28690
320	28692
319	28694
318	28696
318	28698
317	28700
316	28702
315	28704
314	28706
313	28708
312	28710
310	28712
309	28715
308	28717
307	28719
306	28721
304	28723
304	28725
302	28727
302	28729
301	28731
300	28733
299	28735
297	28737
296	28739
295	28741
295	28743
294	28745
293	28747
292	28749
292	28751
291	28753
290	28755
289	28758
289	28760
288	28762
288	28764
287	28766
287	28768
286	28770
286	28772
286	28774
285	28776
285	28778
284	28780
284	28782
284	28784
284	28786
284	28788
284	28790
284	28792
283	28794
283	28796
283	28798
283	28800
283	28802
283	28804
284	28806
284	28808
283	28810
283	28812
284	28814
284	28816
284	28818
284	28820
284	28822
284	28824
284	28826
284	28828
284	28830
284	28832
285	28834
285	28836
285	28838
285	28840
285	28843
285	28845
286	28847
286	28849
286	28851
286	28853
286	28855
286	28857
286	28859
287	28861
287	28863
287	28865
287	28867
287	28869
287	28871
288	28873
288	28875
288	28877
288	28879
288	28881
288	28883
288	28886
288	28888
289	28890
289	28892
289	28894
289	28896
289	28898
289	28900
289	28902
290	28904
290	28906
290	28908
290	28910
290	28912
290	28914
290	28916
290	28918
290	28920
291	28922
291	28924
291	28926
291	28928
291	28930
291	28932
291	28934
292	28936
292	28938
292	28940
292	28942
292	28944
292	28946
292	28948
292	28950
292	28952
292	28954
292	28956
292	28958
292	28960
292	28962
293	28964
293	28966
292	28968
293	28971
292	28973
292	28975
292	28977
292	28979
292	28981
292	28983
292	28985
292	28987
293	28989
292	28991
293	28993
293	28995
292	28997
293	28999
292	29001
292	29003
292	29005
292	29007
293	29009
292	29011
292	29014
293	29016
293	29018
292	29020
293	29022
293	29024
293	29026
293	29028
293	29030
293	29032
293	29034
293	29036
293	29038
293	29040
293	29042
293	29044
293	29046
293	29048
293	29050
293	29052
293	29054
293	29056
293	29058
293	29060
293	29062
293	29064
293	29066
293	29068
293	29070
293	29072
293	29074
293	29076
293	29078
293	29080
293	29082
293	29084
293	29086
293	29088
293	29090
293	29092
293	29094
294	29096
294	29099
294	29101
294	29103
294	29105
294	29107
294	29109
294	29111
294	29113
293	29115
294	29117
294	29119
294	29121
294	29123
294	29125
294	29127
294	29129
294	29131
294	29133
294	29135
294	29137
294	29139
294	29142
294	29144
294	29146
294	29148
294	29150
294	29152
295	29154
295	29156
295	29158
295	29160
295	29162
295	29164
295	29166
295	29168
295	29170
295	29172
295	29174
295	29176
295	29178
295	29180
295	29182
295	29184
295	29186
295	29188
295	29190
295	29192
295	29194
296	29196
295	29198
295	29200
295	29202
295	29204
296	29206
295	29208
295	29210
296	29212
296	29214
296	29216
296	29218
295	29220
296	29222
296	29224
296	29227
296	29229
296	29231
296	29233
296	29235
296	29237
296	29239
296	29241
296	29243
296	29245
296	29247
296	29249
296	29251
296	29253
296	29255
296	29257
296	29259
296	29261
296	29263
296	29265
296	29267
296	29270
296	29272
296	29274
296	29276
296	29278
296	29280
296	29282
296	29284
296	29286
296	29288
296	29290
297	29292
297	29294
297	29296
297	29298
298	29300
298	29302
298	29304
299	29306
299	29308
299	29310
299	29312
299	29314
300	29316
300	29318
301	29320
301	29322
301	29324
302	29326
302	29328
302	29330
303	29332
302	29334
302	29336
302	29338
302	29340
302	29342
302	29344
302	29346
302	29348
303	29350
303	29352
303	29355
303	29357
302	29359
302	29361
302	29363
301	29365
301	29367
301	29369
300	29371
300	29373
299	29375
299	29377
299	29379
299	29381
299	29383
298	29385
298	29387
298	29389
298	29391
297	29393
297	29395
297	29398
297	29400
297	29402
297	29404
297	29406
297	29408
297	29410
297	29412
297	29414
297	29416
298	29418
298	29420
298	29422
299	29424
299	29426
300	29428
302	29430
304	29432
308	29434
313	29436
319	29438
323	29440
331	29442
340	29444
348	29446
356	29448
363	29450
369	29452
373	29454
374	29456
374	29458
372	29460
369	29462
365	29464
360	29466
354	29468
348	29470
341	29472
334	29474
328	29476
322	29478
317	29480
312	29483
308	29485
304	29487
301	29489
299	29491
297	29493
295	29495
294	29497
293	29499
293	29501
292	29503
292	29505
291	29507
291	29509
290	29511
290	29513
290	29515
289	29517
289	29519
289	29521
289	29523
289	29526
289	29528
289	29530
289	29532
289	29534
289	29536
289	29538
289	29540
290	29542
289	29544
290	29546
290	29548
290	29550
290	29552
290	29554
290	29556
291	29558
291	29560
291	29562
291	29564
292	29566
292	29568
292	29570
292	29572
292	29574
293	29576
293	29578
293	29580
293	29582
294	29584
294	29586
294	29588
294	29590
295	29592
296	29594
296	29596
296	29598
296	29600
297	29602
297	29604
297	29606
298	29608
298	29611
298	29613
299	29615
299	29617
300	29619
300	29621
300	29623
301	29625
301	29627
302	29629
302	29631
302	29633
303	29635
304	29637
304	29639
304	29641
305	29643
305	29645
306	29647
307	29649
307	29651
308	29654
308	29656
309	29658
310	29660
310	29662
311	29664
312	29666
312	29668
313	29670
314	29672
314	29674
315	29676
316	29678
316	29680
317	29682
317	29684
318	29686
319	29688
319	29690
319	29692
320	29694
320	29696
320	29698
321	29700
321	29702
322	29704
322	29706
323	29708
323	29710
323	29712
323	29714
323	29716
323	29718
323	29720
323	29722
323	29724
323	29726
322	29728
322	29730
321	29732
321	29734
320	29736
319	29739
319	29741
318	29743
317	29745
316	29747
316	29749
314	29751
313	29753
312	29755
311	29757
310	29759
309	29761
308	29763
307	29765
306	29767
305	29769
304	29771
304	29773
303	29775
302	29777
301	29779
300	29782
299	29784
298	29786
297	29788
297	29790
296	29792
295	29794
295	29796
294	29798
294	29800
293	29802
293	29804
292	29806
292	29808
292	29810
291	29812
291	29814
290	29816
290	29818
290	29820
290	29822
290	29824
290	29826
289	29828
289	29830
289	29832
289	29834
289	29836
289	29838
289	29840
288	29842
288	29844
289	29846
289	29848
289	29850
289	29852
289	29854
289	29856
289	29858
289	29860
289	29862
289	29864
289	29867
290	29869
290	29871
290	29873
290	29875
290	29877
290	29879
291	29881
291	29883
291	29885
291	29887
291	29889
291	29891
292	29893
292	29895
292	29897
292	29899
292	29901
292	29903
293	29905
293	29907
293	29910
293	29912
293	29914
293	29916
294	29918
293	29920
294	29922
294	29924
294	29926
294	29928
294	29930
294	29932
294	29934
295	29936
295	29938
295	29940
295	29942
295	29944
296	29946
296	29948
295	29950
296	29952
296	29954
296	29956
296	29958
296	29960
296	29962
296	29964
296	29966
297	29968
297	29970
297	29972
297	29974
297	29976
297	29978
297	29980
297	29982
297	29984
298	29986
298	29988
298	29990
298	29992
298	29995
298	29997
298	29999
298	30001
298	30003
298	30005
298	30007
298	30009
298	30011
298	30013
298	30015
298	30017
299	30019
299	30021
299	30023
299	30025
299	30027
299	30029
299	30031
299	30033
299	30035
299	30038
299	30040
299	30042
300	30044
300	30046
300	30048
300	30050
300	30052
300	30054
301	30056
301	30058
300	30060
300	30062
301	30064
301	30066
301	30068
301	30070
301	30072
301	30074
301	30076
302	30078
302	30080
302	30082
302	30084
302	30086
302	30088
303	30090
302	30092
303	30094
303	30096
303	30098
303	30100
303	30102
303	30104
303	30106
303	30108
303	30110
304	30112
304	30114
304	30116
304	30118
304	30120
304	30123
304	30125
304	30127
304	30129
305	30131
304	30133
305	30135
305	30137
305	30139
305	30141
305	30143
305	30145
305	30147
305	30149
305	30151
305	30153
305	30155
305	30157
305	30159
306	30161
306	30163
306	30166
306	30168
305	30170
305	30172
305	30174
305	30176
305	30178
305	30180
305	30182
305	30184
305	30186
305	30188
306	30190
305	30192
305	30194
305	30196
305	30198
306	30200
306	30202
306	30204
306	30206
306	30208
306	30210
306	30212
306	30214
306	30216
306	30218
306	30220
306	30222
306	30224
306	30226
306	30228
306	30230
306	30232
306	30234
306	30236
306	30238
306	30240
306	30242
306	30244
306	30246
306	30248
306	30251
306	30253
306	30255
307	30257
307	30259
307	30261
307	30263
307	30265
307	30267
307	30269
307	30271
307	30273
307	30275
307	30277
307	30279
307	30281
307	30283
307	30285
307	30287
307	30289
307	30291
307	30294
307	30296
307	30298
306	30300
306	30302
306	30304
307	30306
307	30308
307	30310
307	30312
307	30314
307	30316
307	30318
307	30320
307	30322
308	30324
308	30326
308	30328
309	30330
309	30332
309	30334
309	30336
309	30338
309	30340
310	30342
310	30344
310	30346
311	30348
311	30350
311	30352
311	30354
312	30356
312	30358
312	30360
312	30362
312	30364
312	30366
312	30368
311	30370
312	30372
311	30374
312	30376
311	30379
312	30381
311	30383
311	30385
311	30387
311	30389
311	30391
311	30393
310	30395
310	30397
309	30399
309	30401
309	30403
308	30405
308	30407
308	30409
308	30411
307	30413
307	30415
307	30417
307	30419
307	30422
306	30424
306	30426
306	30428
306	30430
306	30432
306	30434
306	30436
306	30438
305	30440
306	30442
306	30444
306	30446
306	30448
306	30450
306	30452
306	30454
307	30456
308	30458
311	30460
314	30462
316	30464
322	30466
328	30468
336	30470
345	30472
354	30474
363	30476
370	30478
378	30480
383	30482
386	30484
387	30486
386	30488
384	30490
380	30492
376	30494
370	30496
364	30498
358	30500
351	30502
345	30504
338	30507
332	30509
327	30511
322	30513
318	30515
314	30517
311	30519
308	30521
306	30523
305	30525
303	30527
302	30529
301	30531
300	30533
300	30535
299	30537
298	30539
297	30541
297	30543
297	30545
296	30547
296	30550
295	30552
295	30554
295	30556
295	30558
295	30560
294	30562
295	30564
294	30566
294	30568
294	30570
294	30572
294	30574
294	30576
294	30578
294	30580
294	30582
294	30584
294	30586
294	30588
294	30590
295	30592
295	30594
295	30596
295	30598
295	30600
295	30602
295	30604
295	30606
296	30608
296	30610
296	30612
296	30614
297	30616
297	30618
297	30620
297	30622
297	30624
297	30626
297	30628
297	30630
298	30632
298	30635
299	30637
299	30639
300	30641
300	30643
301	30645
302	30647
302	30649
303	30651
303	30653
303	30655
304	30657
304	30659
305	30661
305	30663
306	30665
307	30667
307	30669
308	30671
309	30673
309	30675
310	30678
311	30680
312	30682
312	30684
313	30686
314	30688
314	30690
315	30692
316	30694
317	30696
317	30698
318	30700
319	30702
320	30704
320	30706
322	30708
322	30710
322	30712
323	30714
323	30716
324	30718
324	30720
325	30722
325	30724
326	30726
326	30728
326	30730
326	30732
327	30734
327	30736
327	30738
327	30740
327	30742
327	30744
327	30746
326	30748
326	30750
325	30752
325	30754
324	30756
323	30758
323	30760
322	30763
321	30765
320	30767
319	30769
318	30771
317	30773
316	30775
315	30777
314	30779
313	30781
312	30783
311	30785
309	30787
308	30789
307	30791
306	30793
304	30795
304	30797
302	30799
301	30801
300	30803
299	30806
298	30808
297	30810
297	30812
296	30814
295	30816
294	30818
293	30820
293	30822
292	30824
291	30826
291	30828
290	30830
289	30832
289	30834
288	30836
288	30838
288	30840
287	30842
287	30844
287	30846
287	30848
287	30850
287	30852
287	30854
287	30856
287	30858
287	30860
286	30862
286	30864
286	30866
287	30868
287	30870
287	30872
287	30874
287	30876
288	30878
287	30880
288	30882
288	30884
288	30886
288	30888
288	30891
288	30893
288	30895
289	30897
289	30899
289	30901
289	30903
289	30905
289	30907
290	30909
290	30911
290	30913
290	30915
290	30917
290	30919
290	30921
291	30923
291	30925
291	30927
291	30929
291	30931
291	30934
292	30936
292	30938
292	30940
292	30942
293	30944
293	30946
293	30948
293	30950
293	30952
293	30954
294	30956
294	30958
294	30960
294	30962
294	30964
294	30966
294	30968
295	30970
295	30972
295	30974
295	30976
295	30978
295	30980
296	30982
296	30984
296	30986
296	30988
296	30990
296	30992
296	30994
297	30996
297	30998
297	31000
297	31002
297	31004
297	31006
297	31008
297	31010
297	31012
297	31014
297	31016
297	31019
297	31021
298	31023
297	31025
297	31027
297	31029
297	31031
297	31033
297	31035
297	31037
298	31039
298	31041
297	31043
297	31045
298	31047
298	31049
298	31051
298	31053
298	31055
298	31057
298	31059
298	31062
298	31064
298	31066
298	31068
298	31070
298	31072
298	31074
298	31076
298	31078
298	31080
298	31082
299	31084
299	31086
299	31088
298	31090
299	31092
298	31094
299	31096
299	31098
299	31100
299	31102
299	31104
299	31106
299	31108
300	31110
300	31112
300	31114
300	31116
300	31118
300	31120
300	31122
300	31124
300	31126
300	31128
300	31130
300	31132
300	31134
301	31136
300	31138
300	31140
300	31142
300	31144
300	31147
300	31149
300	31151
301	31153
301	31155
301	31157
301	31159
301	31161
301	31163
301	31165
301	31167
301	31169
301	31171
302	31173
302	31175
302	31177
302	31179
302	31181
302	31183
302	31185
302	31187
302	31190
302	31192
302	31194
303	31196
303	31198
303	31200
303	31202
304	31204
304	31206
304	31208
303	31210
303	31212
302	31214
302	31216
301	31218
301	31220
301	31222
302	31224
302	31226
302	31228
302	31230
302	31232
302	31234
302	31236
303	31238
303	31240
302	31242
303	31244
303	31246
303	31248
303	31250
303	31252
303	31254
303	31256
303	31258
303	31260
303	31262
303	31264
303	31266
303	31268
303	31270
303	31272
303	31275
303	31277
303	31279
303	31281
303	31283
304	31285
304	31287
305	31289
306	31291
306	31293
306	31295
306	31297
307	31299
307	31301
307	31303
308	31305
308	31307
308	31309
309	31311
309	31313
309	31315
310	31318
310	31320
311	31322
311	31324
310	31326
310	31328
309	31330
308	31332
308	31334
308	31336
308	31338
309	31340
309	31342
309	31344
308	31346
308	31348
308	31350
307	31352
307	31354
307	31356
306	31358
307	31360
306	31362
307	31364
306	31366
306	31368
306	31370
305	31372
304	31374
304	31376
303	31378
303	31380
303	31382
303	31384
303	31386
303	31388
303	31390
303	31392
303	31394
303	31396
302	31398
302	31400
303	31403
303	31405
303	31407
304	31409
305	31411
307	31413
310	31415
314	31417
320	31419
326	31421
335	31423
344	31425
353	31427
362	31429
370	31431
378	31433
383	31435
386	31437
387	31439
386	31441
384	31443
380	31446
375	31448
370	31450
364	31452
358	31454
351	31456
344	31458
337	31460
331	31462
326	31464
320	31466
316	31468
312	31470
310	31472
307	31474
305	31476
303	31478
302	31480
301	31482
300	31484
299	31486
299	31488
298	31490
298	31492
297	31494
297	31496
296	31498
296	31500
295	31502
295	31504
294	31506
294	31508
294	31510
294	31512
294	31514
294	31516
293	31518
293	31520
293	31522
292	31524
292	31526
292	31528
292	31531
293	31533
293	31535
292	31537
292	31539
292	31541
292	31543
292	31545
292	31547
292	31549
293	31551
293	31553
293	31555
294	31557
294	31559
294	31561
294	31563
294	31565
294	31567
294	31569
294	31571
295	31574
295	31576
295	31578
296	31580
296	31582
296	31584
296	31586
297	31588
297	31590
297	31592
298	31594
298	31596
298	31598
299	31600
299	31602
300	31604
300	31606
300	31608
301	31610
301	31612
302	31614
302	31616
302	31618
303	31620
304	31622
304	31624
305	31626
306	31628
306	31630
306	31632
307	31634
307	31636
308	31638
309	31640
310	31642
311	31644
312	31646
312	31648
313	31650
314	31652
314	31654
315	31656
316	31659
316	31661
317	31663
318	31665
319	31667
320	31669
321	31671
322	31673
323	31675
323	31677
323	31679
324	31681
324	31683
325	31685
325	31687
325	31689
326	31691
326	31693
326	31695
326	31697
325	31699
325	31702
325	31704
324	31706
323	31708
323	31710
322	31712
322	31714
321	31716
320	31718
319	31720
318	31722
317	31724
316	31726
315	31728
313	31730
311	31732
310	31734
309	31736
307	31738
306	31740
304	31742
304	31744
302	31746
301	31748
300	31750
300	31752
299	31754
298	31756
297	31758
296	31760
295	31762
294	31764
293	31766
293	31768
292	31770
291	31772
290	31774
289	31776
288	31778
287	31780
287	31782
286	31784
285	31787
285	31789
284	31791
284	31793
284	31795
284	31797
283	31799
283	31801
283	31803
282	31805
282	31807
282	31809
282	31811
281	31813
281	31815
282	31817
281	31819
281	31821
281	31823
281	31825
281	31827
280	31830
280	31832
280	31834
280	31836
281	31838
281	31840
282	31842
282	31844
282	31846
282	31848
282	31850
283	31852
283	31854
283	31856
283	31858
283	31860
283	31862
283	31864
283	31866
283	31868
284	31870
284	31872
284	31874
284	31876
285	31878
285	31880
285	31882
286	31884
286	31886
286	31888
286	31890
286	31892
286	31894
286	31896
287	31898
287	31900
287	31902
287	31904
287	31906
287	31908
287	31910
288	31912
288	31915
288	31917
288	31919
289	31921
289	31923
289	31925
289	31927
289	31929
289	31931
290	31933
290	31935
290	31937
290	31939
290	31941
290	31943
290	31945
289	31947
289	31949
290	31951
290	31953
291	31955
291	31958
292	31960
292	31962
292	31964
292	31966
293	31968
293	31970
293	31972
293	31974
293	31976
293	31978
293	31980
293	31982
293	31984
293	31986
294	31988
294	31990
294	31992
294	31994
294	31996
294	31998
294	32000
294	32002
294	32004
294	32006
293	32008
294	32010
294	32012
294	32014
294	32016
294	32018
294	32020
294	32022
294	32024
294	32026
294	32028
294	32030
294	32032
295	32034
295	32036
295	32038
295	32040
295	32043
295	32045
295	32047
295	32049
295	32051
295	32053
296	32055
296	32057
296	32059
296	32061
296	32063
296	32065
296	32067
296	32069
297	32071
297	32073
297	32075
297	32077
297	32079
297	32081
297	32083
297	32086
297	32088
297	32090
297	32092
297	32094
297	32096
297	32098
297	32100
297	32102
297	32104
297	32106
297	32108
297	32110
297	32112
297	32114
298	32116
298	32118
298	32120
298	32122
298	32124
298	32126
298	32128
298	32130
299	32132
299	32134
299	32136
299	32138
300	32140
300	32142
300	32144
300	32146
300	32148
300	32150
300	32152
300	32154
300	32156
300	32158
300	32160
300	32162
299	32164
299	32166
300	32168
300	32171
300	32173
300	32175
300	32177
300	32179
300	32181
299	32183
299	32185
299	32187
299	32189
300	32191
300	32193
299	32195
299	32197
299	32199
299	32201
299	32203
300	32205
300	32207
300	32209
300	32211
300	32214
300	32216
301	32218
301	32220
301	32222
301	32224
302	32226
302	32228
302	32230
303	32232
303	32234
304	32236
304	32238
305	32240
304	32242
305	32244
305	32246
305	32248
305	32250
306	32252
306	32254
306	32256
306	32258
306	32260
306	32262
307	32264
307	32266
307	32268
307	32270
307	32272
307	32274
307	32276
307	32278
307	32280
307	32282
307	32284
307	32286
307	32288
307	32290
307	32292
307	32294
307	32296
307	32299
306	32301
306	32303
306	32305
305	32307
304	32309
304	32311
303	32313
303	32315
303	32317
302	32319
302	32321
302	32323
302	32325
302	32327
302	32329
301	32331
301	32333
301	32335
300	32337
300	32339
300	32342
300	32344
300	32346
300	32348
300	32350
300	32352
300	32354
300	32356
300	32358
301	32360
301	32362
302	32364
304	32366
306	32368
310	32370
315	32372
321	32374
328	32376
337	32378
346	32380
355	32382
359	32384
366	32386
372	32388
377	32390
379	32392
379	32394
378	32396
375	32398
370	32400
365	32402
359	32404
353	32406
346	32408
339	32410
332	32412
325	32414
320	32416
315	32418
311	32420
307	32422
304	32424
301	32427
299	32429
297	32431
296	32433
295	32435
294	32437
294	32439
293	32441
293	32443
292	32445
292	32447
291	32449
291	32451
290	32453
290	32455
290	32457
289	32459
289	32461
289	32463
289	32465
289	32467
290	32470
290	32472
291	32474
291	32476
291	32478
290	32480
290	32482
290	32484
290	32486
291	32488
291	32490
291	32492
291	32494
292	32496
292	32498
292	32500
292	32502
292	32504
293	32506
293	32508
293	32510
294	32512
294	32514
294	32516
295	32518
295	32520
295	32522
295	32524
296	32526
296	32528
296	32530
296	32532
296	32534
296	32536
296	32538
296	32540
296	32542
296	32544
296	32546
296	32548
296	32550
297	32552
297	32555
297	32557
298	32559
299	32561
299	32563
300	32565
301	32567
302	32569
302	32571
302	32573
303	32575
303	32577
304	32579
304	32581
305	32583
305	32585
306	32587
307	32589
307	32591
308	32593
309	32595
310	32598
310	32600
310	32602
311	32604
312	32606
312	32608
313	32610
314	32612
314	32614
315	32616
316	32618
317	32620
317	32622
318	32624
319	32626
319	32628
319	32630
320	32632
321	32634
321	32636
322	32638
322	32640
322	32642
323	32644
323	32646
322	32648
323	32650
323	32652
323	32654
322	32656
322	32658
321	32660
321	32662
320	32664
320	32666
319	32668
318	32670
317	32672
316	32674
315	32676
315	32678
314	32680
313	32683
312	32685
311	32687
309	32689
308	32691
307	32693
306	32695
304	32697
303	32699
302	32701
301	32703
300	32705
298	32707
297	32709
296	32711
294	32713
294	32715
293	32717
291	32719
291	32721
289	32723
289	32726
288	32728
287	32730
286	32732
286	32734
285	32736
285	32738
284	32740
284	32742
284	32744
283	32746
283	32748
282	32750
282	32752
282	32754
282	32756
281	32758
281	32760
281	32762
281	32764
281	32766
281	32768
281	32770
281	32772
281	32774
280	32776
280	32778
279	32780
279	32782
280	32784
280	32786
280	32788
280	32790
280	32792
280	32794
280	32796
280	32798
280	32800
280	32802
281	32804
281	32806
281	32808
281	32811
281	32813
281	32815
282	32817
281	32819
282	32821
282	32823
283	32825
283	32827
283	32829
283	32831
283	32833
284	32835
284	32837
284	32839
284	32841
284	32843
284	32845
284	32847
284	32849
285	32851
285	32854
285	32856
286	32858
286	32860
286	32862
286	32864
286	32866
287	32868
287	32870
287	32872
287	32874
287	32876
287	32878
287	32880
287	32882
287	32884
288	32886
288	32888
288	32890
288	32892
289	32894
288	32896
289	32898
288	32900
288	32902
289	32904
289	32906
289	32908
289	32910
289	32912
289	32914
289	32916
290	32918
290	32920
290	32922
290	32924
291	32926
291	32928
291	32930
291	32932
291	32934
291	32936
291	32939
291	32941
290	32943
290	32945
291	32947
291	32949
291	32951
292	32953
292	32955
292	32957
292	32959
