384	2167
369	2179
359	2191
351	2202
343	2214
340	2226
338	2238
338	2250
338	2262
339	2274
343	2285
348	2297
356	2309
364	2321
370	2332
374	2344
376	2357
373	2368
368	2380
361	2392
355	2404
349	2416
343	2429
340	2441
338	2453
339	2465
339	2477
340	2489
341	2500
341	2512
339	2524
336	2536
333	2548
331	2560
332	2572
331	2583
329	2595
350	2607
396	2619
405	2631
386	2642
365	2655
349	2666
337	2678
328	2690
323	2702
319	2713
318	2725
317	2738
318	2749
319	2761
323	2772
328	2785
334	2796
341	2808
347	2820
352	2832
353	2844
351	2855
346	2868
339	2879
332	2891
326	2903
320	2915
317	2927
315	2938
315	2951
316	2962
318	2974
319	2985
319	2998
317	3010
315	3021
313	3036
311	3047
309	3059
308	3070
312	3083
352	3094
395	3106
390	3119
367	3130
345	3142
327	3153
315	3166
307	3177
301	3189
298	3202
297	3213
298	3225
299	3236
302	3249
306	3260
312	3272
319	3283
327	3296
333	3308
337	3319
338	3332
335	3343
330	3355
323	3366
317	3379
313	3391
309	3402
307	3415
305	3426
307	3438
309	3449
310	3462
311	3474
311	3485
309	3497
308	3509
306	3521
305	3532
304	3545
301	3556
315	3568
364	3580
394	3592
377	3604
352	3615
333	3628
316	3641
305	3653
297	3664
292	3677
289	3689
289	3700
290	3713
292	3724
295	3736
301	3747
308	3760
316	3772
324	3784
328	3795
329	3812
328	3824
323	3836
317	3848
311	3860
305	3871
302	3884
300	3896
300	3907
300	3919
302	3931
304	3943
305	3954
305	3966
304	3979
302	3990
301	4002
300	4014
299	4026
297	4038
315	4049
366	4062
391	4073
376	4085
352	4097
332	4109
316	4121
304	4132
296	4145
291	4156
288	4168
287	4180
286	4192
288	4204
291	4215
297	4228
304	4239
312	4250
318	4261
323	4274
326	4285
326	4297
322	4310
317	4321
311	4333
306	4344
302	4357
300	4368
299	4380
300	4392
300	4404
301	4416
303	4427
304	4440
304	4452
303	4463
301	4475
298	4487
297	4499
297	4511
295	4523
317	4535
365	4546
383	4558
364	4570
343	4582
324	4594
310	4605
300	4618
294	4629
287	4641
286	4654
286	4665
286	4677
288	4688
289	4701
295	4713
302	4724
309	4737
316	4748
321	4760
324	4771
324	4784
320	4796
312	4807
307	4819
305	4831
302	4843
301	4856
298	4869
296	4880
301	4892
306	4903
308	4916
308	4927
306	4939
301	4951
300	4963
300	4974
299	4986
298	4998
300	5010
331	5021
376	5033
377	5045
356	5057
334	5068
317	5081
305	5092
296	5104
290	5115
286	5128
284	5139
284	5151
284	5163
287	5175
290	5186
295	5198
302	5210
309	5222
315	5233
320	5245
322	5257
322	5269
318	5280
313	5293
308	5305
303	5316
300	5328
297	5340
297	5352
297	5363
297	5376
300	5387
301	5399
300	5410
300	5423
299	5434
296	5446
295	5457
293	5471
292	5483
294	5494
327	5507
372	5518
377	5530
358	5541
338	5554
321	5565
309	5577
298	5588
288	5601
287	5612
286	5624
287	5636
289	5648
288	5659
290	5671
296	5683
305	5695
311	5706
318	5719
321	5730
322	5742
320	5753
321	5766
316	5777
310	5789
306	5800
303	5813
300	5824
297	5836
298	5848
302	5860
301	5871
305	5883
304	5895
304	5907
301	5918
299	5931
296	5942
295	5954
293	5965
291	5978
312	5989
362	6001
383	6012
366	6025
342	6036
323	6048
307	6060
294	6074
287	6085
283	6097
280	6110
279	6121
278	6133
281	6150
287	6162
292	6174
299	6185
306	6198
313	6209
318	6221
319	6233
317	6245
314	6256
309	6268
304	6281
301	6292
298	6304
296	6316
295	6328
296	6340
299	6351
300	6364
302	6375
302	6387
301	6400
299	6411
297	6423
296	6434
292	6447
291	6459
309	6470
360	6482
382	6494
365	6506
342	6518
324	6530
310	6542
300	6553
293	6565
289	6577
286	6589
285	6601
286	6612
288	6625
290	6636
294	6648
299	6661
306	6672
313	6686
318	6697
321	6710
320	6721
317	6733
312	6746
307	6757
303	6769
299	6780
296	6793
295	6804
294	6816
296	6829
298	6840
300	6852
300	6863
298	6876
294	6888
293	6899
291	6912
291	6923
290	6935
306	6947
353	6959
373	6971
357	6982
337	6994
320	7007
307	7018
297	7030
291	7042
287	7054
287	7065
287	7077
287	7090
288	7101
291	7113
296	7124
301	7137
307	7148
313	7160
318	7173
320	7184
321	7196
319	7207
314	7220
309	7232
304	7243
300	7256
299	7267
298	7279
298	7289
299	7302
300	7313
300	7325
299	7336
299	7349
296	7361
294	7372
292	7385
291	7396
289	7408
309	7420
357	7432
371	7444
352	7455
331	7468
314	7480
301	7491
292	7503
286	7515
282	7527
281	7538
281	7550
283	7563
284	7574
286	7586
291	7598
296	7610
303	7621
310	7633
315	7646
317	7657
317	7669
315	7681
311	7693
306	7705
302	7716
298	7729
297	7740
297	7752
297	7764
299	7776
300	7788
299	7799
299	7812
297	7823
295	7835
293	7847
292	7859
291	7871
292	7882
324	7897
373	7908
369	7920
347	7932
326	7944
310	7956
299	7967
290	7980
284	7991
281	8003
279	8015
279	8027
281	8039
283	8050
287	8062
293	8075
299	8086
306	8098
311	8110
315	8122
318	8133
316	8145
313	8158
308	8169
303	8181
299	8193
297	8205
296	8217
296	8228
297	8241
299	8252
300	8264
300	8276
298	8288
296	8300
294	8311
292	8324
291	8335
289	8347
300	8359
346	8371
382	8383
371	8394
348	8407
327	8419
310	8430
298	8442
289	8455
283	8466
279	8478
279	8495
279	8507
281	8520
285	8532
291	8544
297	8556
304	8567
310	8580
315	8592
317	8603
317	8615
314	8627
311	8639
306	8650
302	8663
300	8675
298	8686
297	8698
297	8710
299	8722
300	8734
300	8745
299	8758
298	8769
295	8781
294	8794
292	8805
290	8817
295	8828
339	8841
383	8853
373	8864
348	8877
327	8888
310	8900
297	8911
288	8924
282	8936
279	8947
278	8960
278	8971
280	8983
283	8995
287	9007
291	9019
297	9030
304	9042
310	9055
314	9066
317	9078
316	9090
313	9102
309	9113
305	9127
302	9139
300	9151
300	9163
299	9175
300	9187
301	9198
302	9210
301	9222
299	9234
299	9246
298	9257
297	9270
295	9281
291	9293
306	9306
355	9317
378	9329
361	9340
338	9353
321	9365
307	9376
297	9389
289	9400
284	9412
282	9424
281	9436
280	9448
283	9459
286	9472
291	9483
296	9495
303	9507
309	9519
314	9531
317	9542
318	9554
316	9567
312	9578
308	9590
304	9602
301	9614
299	9626
298	9637
297	9650
298	9661
299	9673
300	9684
300	9697
299	9709
297	9720
295	9735
293	9746
292	9758
289	9769
299	9782
345	9793
378	9805
367	9817
345	9829
326	9840
310	9852
297	9864
289	9876
283	9887
279	9900
279	9911
280	9923
280	9934
282	9947
286	9958
292	9970
298	9981
305	9994
311	10006
314	10017
316	10030
315	10042
313	10054
309	10066
306	10079
302	10091
299	10103
298	10116
298	10128
298	10140
299	10152
300	10164
300	10176
298	10188
297	10201
294	10213
292	10225
292	10237
289	10250
302	10262
353	10274
384	10287
367	10299
342	10310
320	10324
304	10337
293	10349
285	10361
281	10374
278	10386
278	10397
279	10409
281	10422
285	10434
290	10446
295	10459
301	10471
307	10483
311	10496
314	10508
313	10519
311	10531
307	10544
304	10556
302	10568
300	10580
299	10593
299	10605
298	10617
299	10630
300	10642
302	10653
301	10665
299	10678
296	10690
294	10702
293	10715
291	10727
299	10739
345	10752
378	10764
365	10776
343	10787
324	10800
309	10812
297	10825
289	10838
284	10854
281	10866
281	10878
282	10890
284	10902
288	10914
292	10927
299	10939
305	10951
311	10963
315	10976
318	10988
318	11000
314	11013
311	11025
307	11036
303	11048
300	11061
299	11073
299	11085
300	11098
300	11110
300	11123
299	11136
297	11148
295	11160
293	11172
293	11185
291	11197
291	11209
324	11222
368	11234
364	11246
343	11258
324	11271
308	11283
298	11295
291	11308
286	11319
283	11332
282	11343
282	11356
285	11368
288	11380
292	11394
298	11406
303	11417
310	11429
313	11442
318	11454
321	11468
319	11481
316	11493
311	11505
307	11517
304	11530
303	11542
303	11554
303	11567
303	11579
302	11591
301	11603
299	11616
296	11628
295	11640
293	11653
292	11665
290	11677
317	11689
364	11702
365	11714
344	11726
324	11739
308	11751
297	11763
289	11776
285	11788
282	11800
282	11812
283	11825
285	11837
287	11849
291	11862
296	11874
302	11886
309	11898
314	11911
318	11923
318	11935
317	11948
313	11960
310	11972
306	11984
302	11997
302	12009
301	12021
302	12035
303	12047
302	12059
300	12071
298	12084
296	12096
295	12108
294	12121
292	12133
293	12145
329	12157
371	12170
366	12182
345	12194
324	12207
309	12219
296	12231
289	12243
284	12256
281	12268
279	12280
280	12293
281	12305
285	12317
289	12329
294	12342
301	12354
307	12366
311	12379
314	12391
315	12403
313	12416
310	12428
306	12440
303	12452
300	12465
300	12477
299	12489
298	12502
300	12514
300	12526
299	12538
298	12551
296	12563
294	12575
292	12588
290	12600
297	12614
344	12625
381	12639
370	12651
347	12662
326	12675
309	12687
296	12699
287	12711
282	12724
278	12736
277	12748
278	12761
280	12773
283	12785
287	12797
293	12810
300	12822
305	12834
310	12847
312	12859
312	12871
311	12883
308	12896
304	12908
301	12920
300	12933
299	12945
298	12957
299	12969
300	12982
300	12994
298	13006
296	13019
293	13031
291	13043
291	13056
289	13068
302	13080
356	13092
384	13105
366	13117
341	13129
320	13142
305	13154
293	13166
285	13179
280	13192
277	13204
276	13216
277	13230
280	13242
285	13254
289	13271
298	13283
304	13296
309	13308
312	13321
313	13333
311	13345
308	13358
304	13369
302	13381
300	13393
300	13406
299	13418
300	13430
301	13443
300	13455
298	13467
296	13479
294	13492
292	13504
292	13516
290	13529
306	13541
357	13553
374	13565
355	13578
334	13590
317	13602
304	13615
294	13627
288	13639
284	13651
282	13664
282	13676
283	13688
285	13701
288	13713
292	13725
298	13737
305	13750
311	13764
316	13776
316	13789
315	13801
312	13813
308	13826
305	13838
302	13850
302	13862
301	13875
301	13887
301	13899
300	13912
298	13924
297	13936
295	13948
294	13961
293	13973
291	13985
304	13998
351	14010
372	14022
356	14034
334	14047
317	14059
304	14071
295	14084
290	14096
286	14108
285	14120
284	14133
285	14145
287	14157
290	14170
296	14182
301	14194
307	14206
313	14219
317	14231
319	14243
320	14256
318	14268
314	14280
311	14292
309	14305
308	14317
307	14331
306	14344
307	14355
305	14367
304	14380
301	14392
298	14404
297	14416
295	14429
293	14441
309	14453
358	14466
375	14478
355	14490
333	14501
316	14514
303	14526
294	14538
287	14551
283	14563
282	14575
282	14587
283	14600
285	14612
288	14624
291	14637
296	14649
303	14660
309	14672
314	14685
316	14697
316	14709
313	14722
310	14734
306	14746
304	14758
302	14771
300	14783
300	14795
300	14807
300	14819
297	14831
295	14843
293	14856
291	14868
289	14880
287	14893
304	14907
356	14918
375	14930
358	14943
336	14955
317	14967
302	14980
292	14992
285	15004
281	15016
279	15028
278	15040
279	15052
280	15065
284	15077
288	15089
294	15101
299	15114
304	15126
309	15138
312	15151
313	15163
311	15174
309	15186
305	15199
302	15211
300	15223
299	15236
300	15248
299	15260
298	15272
296	15285
293	15297
291	15308
290	15321
289	15333
286	15345
304	15357
357	15370
377	15382
360	15394
337	15407
317	15419
302	15431
291	15442
283	15455
278	15467
276	15481
275	15494
276	15506
278	15518
281	15531
285	15543
291	15555
296	15567
302	15580
306	15592
309	15604
310	15617
309	15629
306	15641
303	15653
302	15666
300	15678
299	15695
299	15708
298	15720
296	15732
294	15745
293	15757
292	15769
291	15781
287	15794
299	15806
352	15818
379	15831
362	15843
338	15855
318	15867
303	15880
292	15892
284	15904
279	15917
277	15929
276	15941
277	15953
278	15966
281	15978
286	15990
292	16003
298	16015
304	16027
309	16039
313	16053
313	16065
310	16077
309	16090
307	16102
305	16114
303	16126
301	16139
301	16151
300	16163
299	16176
296	16188
294	16200
292	16212
291	16225
289	16237
292	16249
332	16262
370	16274
360	16286
338	16299
319	16311
306	16323
296	16335
289	16348
283	16360
281	16372
281	16385
282	16397
284	16409
287	16421
290	16434
295	16446
302	16458
308	16471
313	16483
316	16495
317	16507
315	16520
313	16532
310	16544
307	16557
306	16569
304	16581
303	16593
302	16606
300	16618
297	16632
294	16645
292	16657
291	16669
289	16681
291	16694
328	16706
368	16718
360	16730
339	16743
320	16755
305	16766
295	16779
289	16791
286	16803
283	16816
281	16828
282	16840
283	16852
286	16865
289	16877
294	16889
301	16902
306	16914
310	16926
313	16939
314	16951
314	16963
311	16975
309	16988
307	17000
306	17012
304	17025
304	17037
303	17049
302	17061
298	17074
296	17086
294	17098
293	17111
292	17123
290	17135
316	17147
363	17160
368	17172
348	17184
327	17195
313	17207
301	17219
292	17231
286	17244
283	17256
282	17268
281	17281
282	17293
284	17305
287	17317
291	17330
296	17342
302	17354
308	17367
311	17379
314	17391
315	17403
312	17416
309	17428
307	17440
304	17453
303	17465
302	17477
302	17489
301	17502
298	17514
296	17526
294	17539
292	17551
290	17563
288	17575
297	17588
345	17600
375	17612
361	17625
338	17637
319	17649
306	17661
295	17674
288	17686
280	17698
280	17711
276	17723
280	17735
283	17747
283	17760
286	17773
295	17785
304	17798
309	17810
315	17822
314	17835
315	17847
315	17859
316	17871
312	17884
307	17896
305	17908
306	17921
302	17933
304	17945
295	17957
298	17970
297	17982
294	17994
292	18007
291	18019
296	18031
341	18043
382	18056
372	18068
346	18080
325	18094
307	18110
290	18122
280	18135
277	18147
281	18159
280	18171
279	18184
280	18196
283	18208
288	18221
299	18233
307	18245
312	18257
316	18270
320	18282
320	18294
317	18307
317	18319
314	18331
311	18345
307	18358
302	18370
303	18382
306	18395
303	18407
301	18419
297	18432
295	18444
291	18456
289	18468
298	18481
346	18493
371	18505
354	18518
331	18530
309	18542
295	18554
284	18567
277	18579
271	18591
269	18604
259	18616
277	18628
273	18640
269	18653
286	18665
299	18677
308	18690
310	18702
309	18714
315	18726
319	18739
317	18751
314	18763
308	18776
306	18788
303	18800
302	18812
300	18825
298	18837
295	18849
295	18862
294	18874
293	18886
291	18898
292	18911
307	18924
353	18936
370	18949
353	18961
333	18973
318	18985
306	18998
298	19010
293	19022
290	19035
288	19047
288	19058
290	19070
293	19083
295	19095
301	19107
305	19120
310	19132
316	19144
318	19156
319	19169
315	19181
316	19193
313	19206
312	19217
309	19229
307	19241
306	19254
305	19266
302	19278
299	19291
297	19303
295	19315
293	19328
293	19340
289	19352
301	19364
344	19377
360	19388
340	19400
320	19412
306	19425
296	19437
288	19449
283	19462
280	19474
280	19488
281	19501
283	19512
287	19524
290	19536
296	19549
301	19561
306	19573
311	19586
315	19597
318	19609
320	19621
317	19634
313	19646
310	19658
307	19671
304	19683
302	19695
301	19707
299	19720
297	19731
294	19743
292	19756
291	19768
290	19780
288	19792
304	19805
347	19817
358	19829
340	19842
320	19854
306	19866
296	19877
289	19890
283	19902
283	19914
284	19927
285	19939
287	19951
288	19963
292	19976
297	19988
303	20000
309	20013
313	20024
316	20036
318	20048
318	20063
315	20075
311	20087
307	20100
304	20112
301	20124
300	20136
299	20149
297	20161
295	20173
293	20186
290	20198
289	20210
288	20222
288	20235
316	20247
362	20259
363	20272
343	20284
323	20296
309	20308
299	20321
291	20333
285	20345
282	20358
283	20370
285	20382
287	20395
289	20407
293	20419
297	20431
303	20444
310	20455
314	20467
317	20480
321	20493
320	20505
317	20517
312	20534
307	20547
305	20559
304	20572
304	20584
303	20596
301	20609
299	20621
296	20634
294	20646
292	20659
289	20671
303	20683
354	20696
374	20708
355	20720
331	20732
313	20745
299	20758
289	20770
282	20782
278	20795
277	20806
277	20818
278	20831
281	20843
284	20855
290	20868
297	20880
304	20892
308	20904
313	20917
316	20929
316	20941
314	20954
310	20966
307	20978
304	20990
301	21003
299	21015
299	21027
299	21040
297	21052
294	21064
292	21076
290	21089
288	21101
285	21113
304	21126
356	21138
373	21150
357	21163
335	21175
316	21187
301	21199
288	21214
282	21226
279	21238
277	21251
278	21263
279	21275
282	21287
286	21300
292	21312
299	21324
305	21337
310	21349
313	21361
314	21373
314	21386
311	21398
308	21410
304	21423
301	21435
299	21447
298	21459
297	21472
296	21484
294	21496
292	21509
289	21521
286	21533
285	21545
285	21558
317	21570
367	21582
369	21595
346	21607
325	21619
309	21632
296	21644
288	21656
282	21668
280	21681
279	21693
280	21705
283	21718
285	21730
289	21742
294	21754
300	21767
305	21779
310	21792
314	21805
314	21817
313	21829
311	21841
307	21854
305	21866
301	21878
299	21891
298	21903
297	21915
295	21927
293	21940
292	21952
291	21964
290	21977
289	21989
294	22001
336	22013
371	22026
357	22038
332	22050
314	22063
300	22075
290	22087
283	22099
279	22112
276	22124
276	22136
279	22149
281	22161
285	22173
290	22185
296	22198
302	22210
309	22222
314	22235
316	22247
316	22259
315	22272
312	22284
309	22296
306	22308
304	22321
303	22333
301	22345
298	22360
294	22372
292	22383
291	22395
291	22408
289	22420
287	22432
305	22445
351	22457
363	22469
343	22481
322	22494
308	22506
298	22518
290	22531
285	22543
282	22555
280	22567
280	22580
285	22592
288	22604
292	22617
298	22629
304	22641
310	22653
314	22666
318	22678
318	22690
317	22703
315	22715
312	22727
308	22739
305	22752
302	22764
300	22776
298	22789
296	22801
293	22813
290	22825
288	22838
287	22850
286	22862
289	22875
324	22887
366	22899
358	22912
334	22924
313	22942
298	22956
290	22968
287	22980
284	22992
283	23005
283	23017
284	23029
288	23042
292	23054
297	23066
303	23078
308	23091
313	23103
316	23115
316	23128
314	23140
312	23152
310	23164
307	23177
305	23189
303	23201
301	23214
299	23226
297	23238
295	23250
292	23263
292	23275
291	23287
288	23300
290	23312
329	23324
372	23336
364	23349
340	23361
320	23373
305	23386
294	23398
286	23410
282	23422
279	23435
279	23447
279	23459
281	23472
284	23484
289	23496
296	23506
301	23519
308	23531
313	23543
316	23556
316	23568
315	23580
313	23592
309	23605
306	23617
304	23629
303	23642
301	23654
301	23666
298	23677
296	23690
293	23702
291	23714
290	23727
288	23739
290	23751
330	23763
372	23776
365	23788
342	23800
322	23813
306	23825
293	23836
285	23848
280	23861
280	23873
280	23885
280	23898
282	23910
285	23922
290	23934
297	23947
304	23959
309	23971
313	23984
316	23996
317	24008
316	24019
314	24032
310	24044
307	24056
305	24069
303	24083
302	24095
299	24108
297	24119
294	24131
291	24143
288	24156
287	24168
284	24180
294	24193
346	24205
377	24217
359	24229
333	24242
313	24254
299	24266
290	24278
283	24290
280	24302
279	24314
280	24327
282	24339
285	24351
289	24364
294	24376
299	24388
306	24400
312	24413
315	24425
317	24436
316	24449
314	24461
310	24473
307	24485
304	24498
301	24510
299	24522
297	24535
296	24547
294	24559
292	24571
290	24584
288	24595
287	24607
285	24620
309	24632
356	24646
361	24658
339	24671
319	24683
306	24695
296	24708
289	24720
285	24732
283	24744
283	24757
283	24769
285	24781
289	24794
293	24806
298	24818
304	24830
309	24843
313	24855
315	24867
316	24880
316	24892
313	24904
309	24916
306	24929
303	24941
303	24953
303	24966
300	24978
298	24990
296	25003
294	25015
293	25027
293	25039
293	25052
305	25064
345	25076
359	25089
342	25101
322	25113
308	25125
300	25138
293	25150
290	25161
287	25175
287	25187
289	25199
289	25210
292	25225
298	25237
304	25249
312	25262
316	25274
320	25286
322	25298
323	25311
322	25323
321	25336
318	25349
314	25365
312	25377
311	25390
311	25403
309	25415
306	25427
302	25440
299	25452
296	25464
295	25476
295	25488
320	25501
350	25513
337	25526
316	25538
302	25550
292	25563
288	25575
286	25587
285	25600
284	25612
285	25624
286	25636
288	25649
293	25661
298	25673
304	25686
309	25698
314	25710
316	25722
316	25735
314	25747
311	25759
310	25772
308	25784
307	25797
307	25809
306	25822
307	25834
304	25847
301	25859
297	25871
294	25883
292	25896
290	25908
290	25920
315	25932
352	25946
348	25957
330	25969
314	25981
302	25995
294	26006
289	26018
287	26031
287	26043
288	26055
289	26067
291	26080
295	26092
298	26104
302	26117
307	26129
312	26141
316	26153
319	26166
320	26178
319	26190
316	26203
313	26215
309	26227
306	26240
303	26252
301	26264
300	26276
298	26289
295	26301
292	26313
290	26326
288	26338
287	26350
291	26362
335	26377
358	26389
345	26401
327	26414
313	26426
303	26438
296	26450
291	26463
286	26475
284	26487
285	26500
286	26512
289	26524
292	26536
296	26549
301	26561
305	26573
310	26586
313	26598
315	26610
317	26622
318	26635
316	26647
312	26659
307	26672
304	26684
302	26696
300	26708
300	26721
299	26733
296	26745
294	26758
292	26770
291	26782
289	26795
292	26807
328	26819
364	26831
354	26844
333	26856
315	26868
302	26881
292	26893
285	26905
281	26917
279	26930
279	26943
280	26955
282	26968
285	26980
290	26992
295	27004
303	27017
309	27029
314	27041
317	27054
320	27066
320	27078
318	27090
314	27103
309	27115
306	27127
303	27140
302	27152
301	27164
298	27176
295	27189
292	27201
290	27213
288	27226
286	27238
286	27250
316	27262
359	27275
359	27287
340	27299
321	27312
306	27324
293	27336
286	27348
280	27361
278	27373
278	27385
280	27398
282	27410
285	27422
290	27435
295	27447
302	27459
310	27471
315	27484
319	27496
320	27508
319	27523
315	27535
310	27547
306	27559
302	27572
298	27584
296	27596
295	27609
292	27621
290	27633
287	27645
285	27658
283	27670
282	27682
281	27695
306	27707
358	27719
364	27731
342	27744
321	27756
305	27768
294	27786
284	27798
280	27810
278	27823
279	27835
279	27847
281	27859
285	27872
291	27884
298	27896
303	27909
309	27921
313	27933
315	27945
316	27958
315	27970
313	27982
307	27995
304	28007
302	28019
300	28032
300	28044
299	28056
297	28068
295	28081
291	28093
289	28106
288	28119
287	28131
288	28143
324	28155
371	28168
368	28180
344	28192
324	28205
307	28217
294	28229
286	28241
282	28253
279	28265
278	28277
278	28290
280	28302
283	28314
287	28326
293	28339
300	28351
307	28363
312	28376
316	28388
318	28400
316	28412
313	28424
309	28436
305	28448
303	28461
301	28473
300	28485
300	28497
300	28510
297	28522
295	28534
291	28547
290	28559
289	28570
286	28582
295	28595
341	28607
374	28619
361	28632
338	28644
319	28656
302	28670
290	28682
283	28694
281	28706
280	28719
280	28731
282	28743
284	28755
287	28768
292	28780
299	28791
306	28804
311	28816
316	28828
319	28840
320	28853
319	28865
315	28877
310	28890
307	28902
303	28914
301	28926
299	28939
298	28950
296	28962
293	28975
290	28987
287	28999
285	29011
284	29024
286	29036
324	29048
364	29061
356	29073
332	29084
313	29096
300	29109
291	29121
284	29133
281	29146
279	29158
280	29170
283	29182
286	29195
291	29207
296	29219
301	29231
309	29245
314	29257
318	29270
320	29282
321	29294
318	29306
315	29319
311	29331
307	29343
304	29356
301	29368
300	29380
298	29392
296	29405
293	29417
291	29429
288	29442
287	29454
284	29466
292	29478
337	29491
366	29503
351	29515
330	29528
313	29540
302	29552
293	29564
288	29577
285	29589
283	29601
282	29614
283	29626
286	29638
290	29650
296	29663
302	29675
309	29687
313	29700
316	29712
318	29724
319	29736
316	29749
312	29761
308	29773
304	29786
300	29798
295	29808
293	29820
292	29833
294	29845
294	29857
292	29870
291	29882
292	29894
290	29906
298	29919
340	29931
373	29943
362	29956
341	29968
321	29980
306	29992
295	30005
288	30017
284	30029
282	30042
281	30054
282	30066
284	30078
287	30091
292	30103
298	30115
305	30128
311	30140
314	30152
317	30164
318	30177
317	30189
313	30206
307	30219
304	30231
301	30243
300	30256
300	30268
298	30280
295	30292
292	30305
289	30317
287	30329
286	30342
284	30354
312	30366
364	30379
366	30392
342	30404
321	30416
305	30429
293	30441
285	30453
279	30466
277	30478
276	30490
277	30502
280	30515
284	30527
289	30539
297	30552
305	30564
311	30576
316	30588
318	30601
318	30613
317	30625
314	30638
310	30650
307	30662
302	30674
300	30687
298	30699
298	30711
296	30724
294	30736
291	30748
289	30760
287	30773
285	30785
289	30797
334	30810
373	30822
364	30834
341	30846
321	30859
304	30871
293	30883
285	30896
280	30908
278	30920
278	30932
279	30945
282	30959
287	30971
292	30984
298	30996
305	31008
310	31021
314	31033
317	31045
317	31056
315	31069
311	31081
307	31093
303	31106
299	31118
298	31131
297	31142
295	31155
292	31167
289	31179
288	31192
286	31204
285	31216
282	31228
302	31241
354	31253
367	31265
348	31278
327	31290
311	31302
299	31314
290	31327
285	31339
281	31351
280	31364
281	31376
283	31388
286	31400
291	31413
296	31425
303	31437
308	31450
314	31462
317	31474
318	31486
317	31499
315	31511
312	31523
307	31538
304	31550
301	31562
298	31575
296	31587
294	31598
292	31610
290	31623
288	31635
287	31647
286	31660
291	31672
330	31684
367	31696
355	31709
333	31721
315	31733
302	31746
291	31758
285	31770
282	31782
280	31795
280	31807
280	31819
283	31832
287	31844
292	31856
299	31868
306	31881
311	31893
314	31905
317	31918
317	31930
316	31942
313	31954
309	31967
306	31979
303	31991
303	32004
302	32016
300	32028
298	32040
294	32053
292	32065
290	32076
289	32089
287	32103
313	32115
359	32128
363	32140
344	32152
324	32164
308	32177
296	32189
288	32201
284	32214
282	32226
282	32238
283	32250
285	32263
288	32275
291	32287
297	32300
304	32312
310	32324
314	32336
318	32349
318	32361
318	32373
315	32386
311	32398
308	32410
304	32422
303	32435
301	32447
299	32459
296	32472
293	32484
290	32496
287	32508
286	32521
284	32533
292	32545
340	32558
370	32570
356	32582
333	32594
314	32607
300	32623
288	32636
282	32649
279	32661
279	32673
283	32687
287	32699
292	32711
293	32723
297	32736
304	32748
311	32760
315	32773
317	32785
317	32797
316	32809
313	32821
309	32833
305	32845
302	32858
300	32870
299	32882
298	32894
296	32907
293	32919
291	32931
289	32944
288	32955
287	32967
295	32979
339	32992
371	33004
361	33016
339	33029
319	33041
304	33053
294	33065
288	33077
284	33089
282	33101
281	33114
282	33126
284	33138
287	33150
292	33163
298	33175
304	33186
309	33199
312	33211
313	33223
313	33235
312	33250
309	33262
305	33273
303	33286
300	33298
299	33310
298	33323
297	33335
294	33347
291	33359
290	33372
289	33384
287	33395
286	33408
304	33420
356	33432
372	33444
355	33457
332	33469
315	33481
301	33494
291	33506
286	33517
282	33529
281	33542
281	33554
284	33566
287	33579
292	33591
294	33603
300	33615
306	33628
314	33639
318	33651
320	33664
319	33676
316	33688
311	33700
308	33713
305	33725
304	33737
302	33750
301	33762
299	33773
296	33785
293	33798
291	33810
289	33824
286	33837
289	33849
330	33861
372	33873
363	33886
338	33898
318	33910
302	33923
290	33935
282	33947
279	33959
277	33971
277	33983
278	33995
281	34008
285	34020
291	34032
297	34044
303	34057
309	34069
313	34081
315	34094
317	34106
317	34118
314	34130
311	34143
307	34155
304	34167
302	34180
300	34192
298	34204
296	34216
293	34229
291	34241
290	34253
288	34266
285	34278
311	34290
360	34302
369	34315
353	34327
332	34339
315	34351
302	34363
292	34375
286	34387
281	34402
281	34414
282	34426
284	34439
287	34451
291	34463
297	34476
303	34488
309	34500
314	34512
316	34525
318	34537
316	34549
313	34561
310	34573
306	34585
304	34597
302	34610
301	34622
299	34634
296	34647
293	34659
291	34671
289	34683
288	34696
285	34708
309	34720
363	34733
373	34745
351	34757
329	34769
312	34782
299	34794
290	34806
284	34819
281	34831
279	34843
281	34855
284	34868
286	34879
290	34891
294	34904
300	34916
306	34928
310	34940
314	34953
316	34967
315	34979
311	34992
306	35004
304	35017
303	35034
302	35046
301	35058
299	35070
297	35083
294	35095
291	35107
289	35120
287	35132
292	35144
337	35156
372	35169
360	35181
338	35193
318	35206
304	35218
292	35230
286	35243
283	35255
281	35267
281	35279
282	35292
285	35304
288	35316
293	35329
299	35341
304	35353
309	35365
314	35378
316	35390
317	35401
315	35415
311	35426
307	35438
303	35450
301	35463
300	35475
299	35487
297	35500
295	35512
293	35524
291	35536
290	35551
286	35563
295	35575
344	35588
375	35600
361	35612
339	35624
320	35637
305	35649
293	35661
285	35674
281	35686
278	35698
278	35710
279	35723
283	35735
287	35747
290	35760
297	35772
304	35784
310	35796
314	35809
319	35821
318	35833
315	35846
312	35858
309	35870
306	35883
304	35895
303	35907
300	35919
296	35932
293	35944
291	35956
288	35969
286	35981
284	35993
292	36005
342	36018
373	36030
356	36042
331	36055
313	36067
298	36078
289	36090
282	36103
279	36114
277	36126
277	36139
279	36151
282	36163
286	36175
291	36188
298	36200
306	36212
312	36225
319	36237
320	36249
319	36261
317	36274
313	36286
308	36298
304	36311
302	36323
299	36335
297	36347
294	36360
292	36372
289	36384
287	36397
286	36409
283	36420
294	36432
342	36445
360	36457
343	36469
322	36482
306	36494
295	36506
287	36518
282	36531
282	36543
282	36555
283	36568
285	36580
289	36592
294	36604
300	36617
306	36629
310	36641
314	36654
318	36666
319	36678
317	36692
314	36705
309	36717
305	36729
302	36742
299	36754
296	36766
292	36779
289	36791
286	36803
285	36815
283	36828
282	36840
281	36852
312	36865
355	36877
353	36889
332	36901
315	36913
302	36925
293	36937
288	36950
285	36962
283	36974
282	36986
284	36999
286	37011
289	37023
294	37036
300	37048
306	37060
310	37072
314	37085
316	37097
317	37109
316	37122
313	37134
310	37146
307	37158
305	37171
303	37183
301	37195
298	37208
295	37220
292	37232
290	37244
291	37259
288	37271
296	37283
342	37295
369	37307
354	37319
332	37331
316	37344
302	37356
293	37368
287	37381
284	37393
282	37405
282	37417
283	37430
286	37442
290	37458
297	37471
304	37484
311	37496
315	37508
317	37520
317	37532
316	37544
313	37557
309	37569
306	37581
303	37594
302	37606
301	37618
299	37630
298	37642
296	37654
293	37666
291	37679
289	37691
286	37703
311	37715
360	37728
367	37740
349	37752
328	37765
312	37777
298	37789
288	37800
282	37813
281	37825
282	37846
283	37859
286	37872
289	37885
296	37899
303	37911
309	37924
314	37938
317	37951
317	37964
315	37978
312	37991
308	38003
305	38017
303	38030
302	38043
299	38056
296	38069
293	38082
290	38095
288	38109
285	38122
286	38135
330	38149
374	38162
361	38174
336	38188
316	38201
300	38214
289	38227
283	38240
280	38253
278	38266
280	38280
283	38293
288	38306
293	38319
301	38332
307	38345
312	38359
315	38372
316	38385
314	38398
312	38411
308	38424
305	38437
302	38453
301	38466
299	38478
296	38492
294	38505
293	38518
291	38532
289	38545
286	38558
310	38572
364	38585
369	38598
346	38611
324	38624
307	38637
295	38650
287	38664
284	38677
282	38690
282	38704
284	38717
287	38730
293	38744
300	38756
307	38769
313	38782
316	38796
317	38809
316	38822
313	38836
310	38849
307	38862
303	38876
300	38889
299	38901
297	38915
295	38928
292	38941
290	38955
289	38968
287	38981
296	38994
348	39008
371	39021
351	39033
329	39047
311	39060
297	39075
288	39089
284	39102
282	39115
283	39129
284	39141
287	39154
291	39168
297	39181
303	39194
310	39207
315	39221
317	39234
316	39247
314	39261
311	39273
307	39286
304	39300
303	39313
302	39326
300	39340
297	39353
294	39366
292	39379
292	39393
290	39405
291	39418
330	39432
367	39445
352	39458
329	39472
310	39485
297	39498
288	39512
282	39525
280	39537
281	39550
281	39564
284	39577
288	39590
294	39604
301	39617
307	39630
312	39644
317	39657
317	39669
315	39685
311	39698
309	39711
306	39725
304	39738
302	39751
300	39764
297	39778
294	39790
290	39803
289	39817
288	39830
285	39843
310	39857
359	39870
362	39883
340	39897
319	39910
303	39923
293	39936
285	39949
282	39962
280	39975
281	39989
283	40003
287	40020
294	40034
302	40047
308	40060
312	40074
314	40087
314	40100
313	40113
309	40126
305	40139
302	40153
299	40166
297	40179
295	40193
293	40206
290	40219
288	40232
286	40246
285	40259
282	40271
304	40285
359	40298
364	40313
339	40327
318	40340
302	40353
291	40367
284	40380
281	40392
280	40406
281	40419
284	40432
287	40445
292	40459
299	40472
306	40485
310	40499
312	40512
314	40525
313	40538
310	40551
307	40564
305	40578
300	40591
301	40604
300	40617
299	40631
296	40644
293	40657
290	40670
288	40683
287	40696
291	40710
339	40723
375	40736
357	40750
332	40763
313	40776
298	40790
288	40803
283	40815
279	40828
279	40842
280	40855
283	40868
287	40882
292	40895
299	40908
306	40922
312	40936
315	40949
316	40963
314	40976
309	40989
305	41003
301	41016
298	41029
297	41042
298	41056
297	41068
294	41081
293	41095
291	41108
290	41121
288	41135
299	41148
350	41161
369	41175
349	41188
327	41200
309	41213
295	41227
286	41240
282	41253
279	41267
281	41280
283	41293
285	41307
290	41320
295	41333
302	41346
308	41359
313	41372
315	41385
316	41399
313	41412
310	41425
306	41439
303	41452
300	41465
300	41478
299	41491
297	41504
294	41518
291	41531
289	41546
287	41560
284	41573
308	41586
358	41598
358	41612
333	41625
313	41638
299	41652
288	41665
282	41678
281	41692
281	41705
284	41718
288	41732
290	41745
296	41757
304	41771
312	41784
317	41797
320	41810
319	41824
317	41837
313	41850
309	41864
306	41876
303	41889
301	41903
299	41916
297	41929
296	41943
294	41956
291	41969
289	41982
288	41996
288	42009
321	42022
364	42035
356	42048
333	42061
315	42075
302	42088
292	42101
287	42115
285	42128
285	42141
285	42153
288	42169
292	42182
298	42195
305	42209
311	42221
315	42234
317	42248
316	42261
314	42274
310	42288
306	42300
303	42313
300	42327
299	42340
298	42353
297	42366
294	42380
291	42392
288	42405
287	42419
287	42432
287	42445
319	42459
367	42471
361	42484
336	42498
317	42511
302	42524
293	42537
286	42550
282	42563
282	42576
282	42590
285	42603
289	42620
296	42634
303	42647
309	42660
314	42674
317	42687
317	42700
315	42714
311	42726
307	42739
303	42753
300	42766
299	42778
300	42791
299	42804
298	42817
295	42830
292	42844
291	42856
289	42869
286	42883
308	42896
364	42909
370	42923
344	42935
321	42948
303	42961
291	42975
283	42988
278	43001
278	43014
279	43027
281	43040
285	43054
291	43067
297	43080
305	43092
312	43106
318	43119
319	43132
319	43146
315	43159
310	43171
306	43185
305	43198
302	43211
300	43225
299	43238
298	43250
295	43264
292	43277
289	43290
287	43303
285	43317
286	43329
324	43342
371	43356
362	43369
337	43382
313	43398
298	43410
288	43423
281	43437
278	43450
278	43463
280	43476
284	43490
289	43503
296	43516
304	43530
310	43542
315	43555
317	43569
318	43582
315	43595
311	43609
306	43622
302	43635
300	43649
297	43662
295	43675
295	43687
293	43701
290	43714
288	43727
286	43741
284	43754
282	43767
302	43781
354	43794
363	43807
340	43820
318	43833
303	43846
294	43859
288	43873
285	43886
283	43899
284	43913
286	43926
290	43939
294	43953
301	43965
310	43978
315	43992
318	44007
319	44020
316	44034
312	44047
309	44059
305	44072
302	44086
299	44099
297	44112
296	44126
295	44139
293	44152
291	44166
289	44179
288	44192
287	44205
294	44218
339	44231
366	44244
345	44258
321	44271
306	44284
295	44298
288	44311
284	44324
283	44338
283	44350
284	44363
288	44377
292	44390
299	44403
307	44417
313	44430
317	44443
320	44456
320	44470
316	44482
309	44495
304	44509
303	44522
303	44535
303	44549
302	44562
300	44575
298	44589
296	44602
293	44615
290	44630
287	44643
285	44656
308	44669
358	44683
361	44696
339	44709
320	44723
303	44735
292	44748
285	44762
282	44775
282	44788
282	44802
284	44815
287	44828
293	44841
299	44855
307	44868
313	44880
318	44894
320	44907
316	44920
312	44934
309	44947
305	44960
302	44974
299	44987
297	45000
297	45012
297	45026
294	45039
291	45052
288	45066
286	45079
286	45092
285	45106
308	45119
360	45132
362	45145
337	45158
316	45171
300	45185
291	45198
284	45212
283	45230
283	45245
284	45258
286	45272
293	45285
299	45297
306	45310
310	45324
312	45337
314	45350
314	45364
312	45377
308	45390
305	45404
301	45417
298	45429
297	45443
297	45456
299	45469
298	45483
296	45496
294	45509
291	45522
289	45536
288	45549
289	45562
327	45576
372	45589
360	45601
335	45615
316	45628
302	45641
291	45655
285	45668
282	45681
282	45694
283	45708
286	45721
290	45734
296	45747
303	45760
308	45773
312	45787
315	45800
316	45813
315	45827
311	45840
307	45853
300	45869
297	45882
295	45894
296	45907
297	45921
299	45934
299	45947
297	45961
294	45974
292	45987
291	46001
287	46014
309	46027
364	46041
369	46053
347	46066
326	46080
309	46093
296	46106
286	46119
283	46133
279	46146
281	46159
283	46173
288	46186
293	46198
300	46212
307	46225
311	46238
316	46252
318	46265
318	46278
316	46291
312	46305
306	46318
302	46331
298	46344
296	46357
296	46370
296	46384
296	46397
293	46410
291	46424
288	46437
287	46450
285	46464
286	46478
337	46491
371	46504
351	46518
327	46531
308	46544
295	46558
287	46571
282	46584
281	46597
282	46610
284	46623
288	46637
296	46650
303	46663
308	46676
313	46690
319	46703
321	46716
319	46730
316	46742
312	46755
306	46769
302	46782
299	46795
296	46809
296	46822
296	46835
296	46849
293	46862
290	46874
287	46887
287	46901
287	46914
289	46927
328	46941
365	46954
350	46967
328	46981
311	46994
296	47007
291	47020
286	47033
289	47046
291	47059
293	47073
296	47086
299	47101
306	47114
309	47127
317	47140
321	47154
323	47167
323	47180
320	47194
316	47206
309	47219
302	47233
298	47246
300	47259
300	47272
301	47285
300	47298
298	47311
297	47325
295	47338
294	47350
292	47364
290	47377
319	47390
356	47404
350	47417
330	47430
310	47442
297	47456
287	47469
281	47482
277	47496
276	47508
277	47521
281	47535
286	47548
291	47561
299	47575
304	47588
308	47600
310	47613
314	47627
314	47640
310	47653
305	47667
300	47679
299	47692
299	47706
297	47720
296	47733
298	47747
297	47760
295	47772
292	47785
291	47799
290	47813
287	47831
330	47844
372	47857
357	47870
333	47883
315	47896
300	47909
290	47923
281	47936
280	47948
280	47962
281	47975
283	47988
288	48002
295	48015
301	48027
308	48040
313	48054
316	48067
317	48080
316	48094
311	48106
307	48119
302	48133
298	48146
296	48159
295	48173
296	48186
296	48198
293	48211
290	48225
289	48238
288	48251
287	48265
286	48277
320	48290
367	48304
360	48317
334	48331
315	48345
302	48358
293	48371
287	48385
283	48398
283	48411
285	48424
288	48438
294	48450
300	48463
306	48477
313	48490
318	48503
319	48517
320	48530
318	48543
314	48557
309	48570
304	48583
301	48596
298	48609
297	48622
296	48635
299	48649
296	48662
290	48675
285	48689
286	48702
285	48715
297	48728
347	48741
364	48754
344	48768
325	48781
309	48794
298	48807
290	48821
285	48834
283	48847
282	48861
283	48874
288	48886
293	48900
300	48913
306	48926
311	48940
314	48955
315	48968
315	48982
313	48995
310	49007
306	49020
301	49034
298	49047
299	49060
299	49074
298	49087
294	49100
291	49114
288	49127
287	49139
287	49153
294	49166
341	49179
366	49192
345	49206
322	49219
305	49232
294	49246
286	49259
281	49272
279	49285
279	49298
282	49311
285	49325
290	49338
296	49351
302	49364
310	49378
314	49391
316	49404
316	49418
313	49430
310	49443
307	49457
304	49470
302	49483
301	49497
300	49510
298	49523
295	49537
292	49550
290	49561
289	49574
289	49588
291	49601
330	49614
367	49628
355	49641
332	49654
314	49668
300	49681
290	49693
283	49707
281	49720
282	49733
283	49746
286	49760
291	49773
297	49786
304	49800
310	49813
314	49826
315	49840
315	49852
313	49865
310	49879
306	49892
302	49905
298	49918
297	49932
297	49945
296	49958
295	49972
291	49984
288	49997
287	50011
286	50024
286	50037
324	50051
370	50064
359	50077
335	50091
315	50104
301	50117
292	50129
286	50143
282	50156
280	50169
281	50185
283	50198
286	50211
292	50225
299	50238
304	50250
311	50264
314	50277
314	50290
312	50304
309	50317
305	50330
302	50343
301	50357
300	50370
299	50382
300	50397
296	50410
293	50423
290	50441
288	50454
285	50467
300	50481
356	50494
371	50507
349	50521
326	50533
308	50546
296	50560
287	50573
281	50586
279	50599
279	50613
281	50626
284	50639
289	50653
296	50666
302	50678
306	50692
310	50705
313	50718
314	50732
312	50745
307	50758
303	50771
302	50785
300	50800
298	50812
298	50826
296	50839
293	50852
291	50866
290	50879
288	50892
285	50906
311	50919
361	50932
359	50946
337	50958
318	50971
302	50984
293	50998
286	51011
284	51024
283	51038
284	51051
287	51064
290	51078
297	51091
305	51104
311	51117
316	51130
319	51143
321	51156
320	51170
317	51183
313	51196
309	51210
305	51223
303	51236
302	51250
300	51262
297	51275
293	51289
291	51302
289	51315
287	51329
290	51342
330	51355
364	51368
346	51382
324	51395
307	51407
294	51423
287	51436
282	51449
284	51463
285	51476
288	51489
291	51503
295	51516
300	51528
305	51542
312	51555
315	51568
317	51581
316	51595
313	51608
310	51621
307	51635
305	51647
303	51660
302	51674
301	51687
299	51700
296	51714
292	51727
292	51740
291	51753
290	51767
313	51780
360	51792
357	51806
334	51819
316	51832
304	51846
295	51859
289	51872
285	51886
284	51899
285	51912
289	51924
292	51938
297	51951
302	51964
307	51978
311	51991
315	52004
316	52018
314	52033
310	52045
307	52059
305	52072
302	52085
301	52099
302	52112
299	52124
295	52137
290	52151
288	52164
287	52177
284	52191
293	52203
343	52216
365	52230
345	52243
323	52256
307	52270
295	52282
287	52295
283	52308
281	52322
278	52335
280	52348
284	52362
290	52374
295	52387
301	52401
307	52414
312	52427
314	52440
315	52453
312	52466
311	52480
308	52493
304	52506
303	52518
303	52532
302	52545
302	52558
298	52572
294	52585
291	52597
289	52611
283	52624
300	52637
360	52652
367	52665
343	52678
321	52691
303	52704
290	52717
282	52730
276	52744
275	52757
276	52770
277	52783
281	52796
286	52809
292	52823
297	52836
303	52849
307	52862
308	52875
311	52888
309	52901
307	52915
304	52928
302	52941
301	52954
300	52967
300	52980
298	52994
295	53007
292	53020
290	53038
287	53051
294	53064
343	53078
370	53091
354	53104
331	53117
312	53131
298	53143
289	53156
284	53170
281	53183
280	53196
283	53210
285	53222
290	53235
295	53249
302	53264
309	53276
313	53289
315	53303
316	53316
314	53329
311	53343
308	53356
305	53369
302	53383
300	53396
299	53409
296	53422
294	53435
289	53448
287	53462
286	53475
283	53488
312	53501
360	53515
355	53528
333	53541
313	53555
302	53568
294	53580
287	53594
281	53607
279	53620
279	53634
282	53647
287	53660
292	53673
298	53687
304	53700
309	53713
312	53727
314	53739
314	53752
312	53766
308	53779
305	53792
301	53806
303	53819
303	53832
300	53846
296	53859
292	53871
291	53886
292	53900
289	53913
304	53926
353	53940
360	53953
337	53966
317	53979
302	53992
292	54005
286	54019
283	54032
282	54045
283	54059
284	54072
287	54085
292	54098
298	54112
304	54124
309	54137
312	54151
315	54164
316	54177
314	54191
310	54204
304	54217
301	54231
300	54244
301	54257
301	54269
298	54283
294	54296
291	54309
290	54323
288	54336
293	54349
335	54363
365	54376
349	54389
326	54403
309	54416
297	54428
290	54441
285	54455
284	54468
283	54481
284	54495
287	54510
293	54522
299	54536
305	54549
311	54562
315	54576
316	54589
317	54602
315	54616
312	54629
310	54642
307	54654
304	54668
303	54681
302	54694
299	54708
297	54721
293	54734
290	54748
288	54761
286	54774
319	54788
367	54800
361	54813
335	54827
314	54840
300	54853
289	54866
281	54880
277	54893
277	54906
279	54920
283	54933
287	54945
292	54959
297	54972
303	54985
307	54999
310	55012
311	55025
310	55038
308	55052
304	55065
302	55078
300	55091
299	55104
298	55119
298	55133
295	55146
292	55159
290	55173
289	55186
286	55198
301	55212
354	55225
373	55238
351	55251
328	55265
309	55278
296	55291
286	55305
282	55318
280	55331
280	55344
282	55357
285	55370
289	55384
295	55397
301	55410
306	55424
308	55437
309	55450
310	55463
308	55477
305	55489
302	55502
299	55516
297	55529
298	55542
299	55556
297	55569
295	55582
290	55596
288	55609
286	55622
284	55640
335	55653
375	55667
359	55681
333	55694
313	55706
297	55719
288	55733
282	55748
280	55761
279	55775
281	55788
283	55801
287	55814
294	55827
301	55840
308	55854
312	55867
314	55880
315	55894
313	55907
310	55920
308	55933
306	55947
304	55960
305	55973
304	55987
303	55999
300	56012
297	56026
295	56039
293	56052
291	56066
306	56079
359	56092
371	56105
348	56119
325	56132
308	56145
296	56159
288	56171
283	56184
281	56198
283	56211
284	56224
287	56238
292	56251
299	56264
306	56278
312	56291
314	56304
317	56317
316	56330
314	56343
311	56355
308	56369
306	56382
304	56395
303	56409
301	56422
298	56435
295	56449
293	56462
292	56475
289	56487
287	56501
308	56514
358	56527
360	56541
337	56554
317	56567
304	56581
295	56594
288	56607
285	56621
285	56634
286	56646
289	56659
293	56673
297	56686
303	56699
310	56713
314	56726
317	56739
318	56753
317	56766
314	56779
310	56793
307	56805
303	56818
302	56832
301	56845
300	56858
297	56871
293	56885
290	56898
287	56911
285	56925
284	56938
315	56951
361	56964
351	56979
326	56992
308	57006
295	57019
287	57031
281	57044
281	57058
280	57071
281	57084
283	57098
286	57111
291	57123
296	57137
301	57150
307	57163
310	57177
312	57190
312	57202
309	57216
305	57229
303	57242
300	57255
300	57269
300	57282
300	57294
298	57308
294	57321
290	57334
290	57348
288	57361
287	57373
314	57387
363	57400
362	57413
339	57426
319	57440
303	57453
292	57465
285	57479
282	57492
281	57505
281	57519
284	57532
286	57544
291	57558
296	57571
301	57586
306	57600
308	57612
310	57625
310	57638
307	57651
304	57664
302	57677
300	57691
299	57704
299	57717
299	57731
298	57743
294	57756
293	57769
292	57783
291	57796
288	57809
292	57822
339	57835
368	57848
354	57862
332	57875
314	57888
300	57902
289	57914
283	57927
280	57940
278	57954
280	57967
283	57980
288	57993
293	58006
300	58019
305	58033
310	58046
313	58059
314	58072
314	58085
311	58098
307	58112
304	58125
302	58138
301	58150
301	58164
301	58177
300	58190
297	58206
293	58219
291	58232
290	58250
288	58263
323	58277
371	58291
362	58303
338	58316
317	58330
302	58343
292	58356
285	58370
281	58383
280	58396
281	58409
284	58423
288	58436
294	58449
301	58462
307	58475
313	58488
316	58502
317	58515
315	58528
312	58542
308	58555
305	58568
303	58582
301	58595
301	58608
301	58621
300	58635
297	58648
295	58660
294	58674
292	58687
288	58700
301	58714
351	58727
363	58740
343	58754
322	58767
307	58780
296	58793
290	58807
285	58821
285	58834
286	58848
289	58861
294	58874
298	58888
305	58901
311	58914
316	58928
319	58941
321	58954
318	58967
315	58980
311	58993
307	59006
303	59020
300	59033
298	59046
298	59060
296	59073
294	59086
291	59100
290	59113
288	59126
286	59140
292	59152
335	59165
361	59179
343	59192
322	59205
308	59218
297	59232
288	59245
284	59258
283	59272
284	59285
287	59298
290	59311
294	59324
300	59337
306	59351
312	59364
316	59377
318	59390
317	59404
315	59417
311	59430
308	59445
305	59458
302	59471
300	59485
299	59498
300	59511
300	59525
297	59538
294	59551
293	59565
292	59578
289	59590
313	59603
362	59617
360	59630
336	59643
317	59657
302	59670
293	59683
287	59697
283	59710
282	59723
282	59737
283	59749
287	59762
293	59776
300	59789
306	59802
311	59815
314	59829
315	59842
314	59855
312	59869
307	59882
303	59895
301	59908
298	59921
297	59934
298	59948
298	59961
296	59974
293	59987
290	60001
288	60014
287	60027
286	60041
310	60055
365	60068
360	60082
337	60095
317	60108
302	60122
291	60135
283	60148
279	60162
280	60175
281	60188
284	60200
289	60214
294	60227
301	60240
306	60254
310	60267
314	60280
315	60294
314	60307
311	60320
307	60334
303	60346
301	60359
298	60372
298	60386
299	60399
299	60412
297	60426
294	60439
291	60452
288	60466
287	60479
284	60492
310	60505
364	60518
367	60531
344	60545
323	60558
305	60571
292	60584
284	60598
282	60611
280	60624
281	60638
283	60650
286	60663
293	60679
299	60692
305	60705
310	60719
314	60732
314	60745
314	60759
311	60771
306	60784
303	60797
301	60811
299	60825
297	60838
297	60856
298	60869
296	60882
294	60896
292	60909
290	60922
289	60936
295	60949
341	60962
369	60975
351	60988
328	61001
311	61015
298	61028
290	61041
285	61054
283	61068
283	61081
285	61094
288	61108
292	61121
298	61133
305	61147
310	61160
314	61173
317	61187
317	61200
315	61213
310	61227
305	61240
302	61253
299	61266
297	61279
298	61292
297	61307
295	61321
293	61334
291	61347
289	61361
288	61373
284	61386
304	61400
355	61413
358	61426
337	61440
317	61453
302	61466
292	61479
286	61493
283	61506
283	61519
284	61533
286	61545
290	61558
296	61572
303	61585
310	61598
314	61612
318	61625
319	61638
318	61651
315	61665
310	61677
305	61690
302	61704
299	61717
298	61730
299	61744
299	61757
298	61770
295	61784
292	61797
290	61810
288	61822
287	61836
319	61849
365	61862
355	61876
331	61889
312	61902
297	61918
289	61930
284	61943
282	61957
282	61970
284	61983
286	61997
293	62009
299	62022
305	62035
310	62049
314	62062
316	62075
317	62088
315	62101
312	62114
308	62128
303	62141
301	62154
299	62167
298	62180
297	62193
297	62206
295	62220
292	62233
291	62245
290	62259
289	62272
290	62285
328	62299
369	62312
358	62324
335	62338
316	62351
302	62364
292	62377
286	62391
283	62403
282	62416
285	62430
287	62443
292	62456
297	62470
304	62482
310	62495
314	62509
316	62522
316	62537
314	62550
310	62563
306	62576
303	62588
300	62602
298	62615
299	62628
298	62642
298	62655
295	62667
294	62681
292	62694
291	62707
290	62721
291	62734
334	62746
374	62759
361	62773
337	62786
317	62799
302	62813
292	62826
286	62838
282	62852
280	62865
281	62878
284	62892
289	62905
295	62917
303	62930
309	62944
313	62957
315	62970
317	62984
316	62996
313	63009
310	63023
306	63036
303	63049
300	63063
300	63075
300	63088
299	63101
297	63115
293	63128
290	63140
289	63153
287	63166
290	63179
335	63193
371	63206
352	63219
327	63233
309	63246
295	63259
287	63272
282	63285
279	63298
279	63311
280	63325
285	63338
291	63351
298	63365
304	63378
310	63391
316	63405
316	63418
319	63431
316	63444
312	63462
306	63475
303	63489
300	63502
298	63515
299	63528
299	63542
296	63555
292	63568
289	63581
288	63594
287	63607
287	63621
322	63634
360	63647
346	63661
324	63674
307	63687
296	63700
288	63714
284	63726
284	63739
284	63753
287	63768
290	63781
294	63795
301	63808
307	63821
313	63835
317	63847
319	63860
318	63874
316	63887
311	63900
306	63913
303	63927
300	63940
298	63953
297	63967
296	63979
293	63992
291	64006
289	64019
288	64032
287	64046
284	64059
315	64072
359	64086
350	64099
328	64111
312	64124
298	64138
291	64151
286	64164
284	64178
282	64191
282	64204
287	64218
293	64231
299	64244
304	64257
310	64270
313	64283
313	64296
315	64310
314	64323
310	64336
307	64350
303	64363
301	64377
296	64391
297	64404
299	64417
299	64431
296	64444
293	64457
291	64471
290	64484
287	64496
298	64509
349	64523
369	64536
348	64549
325	64563
308	64576
296	64589
288	64603
283	64616
281	64628
280	64642
283	64655
286	64668
290	64681
295	64695
303	64708
308	64721
312	64735
313	64747
312	64760
309	64774
305	64787
301	64800
300	64814
301	64827
301	64840
300	64854
299	64867
297	64879
294	64892
290	64906
288	64919
287	64932
284	64946
307	64959
360	64972
364	64986
337	65000
317	65013
302	65027
290	65040
283	65053
279	65067
279	65080
280	65093
283	65106
287	65120
293	65132
299	65145
306	65159
311	65172
314	65185
315	65199
313	65212
310	65225
307	65239
303	65252
300	65264
297	65277
297	65291
298	65304
297	65317
294	65331
290	65344
287	65357
285	65371
283	65384
283	65396
321	65410
371	65423
361	65436
335	65449
314	65463
299	65476
289	65489
283	65503
280	65515
279	65528
279	65542
284	65555
289	65568
295	65582
301	65595
307	65609
312	65623
314	65636
314	65649
313	65662
309	65676
305	65689
300	65702
297	65716
297	65729
298	65742
299	65756
299	65768
295	65781
291	65795
290	65808
290	65821
290	65835
295	65848
338	65861
370	65874
352	65887
328	65900
312	65913
300	65927
291	65940
287	65953
284	65967
284	65980
286	65993
289	66007
293	66020
299	66033
306	66046
311	66064
314	66077
316	66091
315	66104
312	66117
308	66130
304	66144
300	66157
297	66170
296	66184
296	66196
296	66209
295	66223
292	66238
289	66251
288	66265
286	66278
288	66291
323	66305
361	66317
346	66330
324	66343
307	66357
296	66370
289	66383
284	66397
284	66410
285	66423
286	66436
289	66449
293	66462
299	66476
306	66489
311	66502
315	66515
316	66529
315	66542
313	66554
310	66568
306	66581
303	66594
300	66608
299	66621
298	66634
298	66648
297	66660
294	66673
291	66686
289	66700
287	66713
286	66726
309	66740
349	66753
344	66766
322	66779
306	66792
295	66805
290	66819
286	66832
285	66847
285	66861
287	66873
289	66886
294	66899
302	66913
309	66926
314	66939
315	66952
316	66965
315	66978
314	66992
312	67005
308	67017
306	67031
304	67044
303	67057
302	67070
303	67084
301	67096
298	67109
295	67123
293	67136
291	67149
288	67162
307	67175
349	67188
348	67202
327	67215
311	67228
301	67240
294	67254
290	67267
287	67280
288	67294
289	67307
292	67319
295	67333
300	67346
306	67359
312	67373
316	67385
319	67398
320	67411
319	67425
316	67438
312	67451
307	67466
305	67479
303	67491
302	67505
301	67518
300	67531
298	67545
295	67557
292	67570
291	67584
290	67597
291	67610
323	67623
359	67636
346	67649
327	67662
310	67676
299	67689
289	67701
286	67715
284	67728
284	67741
286	67755
288	67768
291	67780
297	67793
303	67807
309	67820
314	67833
316	67846
317	67859
314	67872
312	67886
309	67899
305	67911
303	67924
302	67938
301	67951
301	67964
300	67978
298	67990
296	68003
294	68017
293	68030
292	68043
297	68056
338	68069
366	68084
347	68098
326	68110
310	68123
298	68136
290	68150
286	68163
284	68176
283	68190
285	68203
288	68216
293	68229
300	68242
306	68255
311	68269
313	68282
315	68295
314	68308
310	68322
309	68334
306	68347
304	68361
302	68374
301	68387
300	68401
299	68414
298	68427
296	68441
294	68453
293	68466
290	68480
288	68493
312	68506
359	68519
363	68533
343	68546
322	68559
306	68573
294	68585
288	68598
284	68612
283	68625
284	68639
286	68657
292	68670
299	68683
306	68699
311	68712
314	68724
315	68738
313	68751
310	68764
306	68777
303	68791
300	68804
298	68817
297	68831
297	68843
297	68856
294	68870
291	68883
288	68896
287	68910
286	68923
283	68936
302	68950
355	68963
368	68975
347	68988
324	69002
306	69015
294	69028
286	69042
281	69055
280	69068
278	69082
282	69095
287	69108
292	69121
299	69134
304	69147
309	69160
310	69174
310	69187
308	69200
306	69214
303	69227
299	69240
298	69253
298	69266
297	69279
297	69293
298	69306
297	69321
294	69335
292	69348
290	69360
289	69373
289	69387
323	69400
370	69413
366	69427
342	69440
321	69453
306	69467
293	69480
286	69492
282	69506
281	69519
281	69532
284	69545
288	69559
293	69572
300	69585
305	69599
309	69612
310	69625
311	69638
309	69651
306	69664
302	69678
299	69691
297	69704
296	69718
297	69731
298	69744
298	69757
295	69770
293	69783
292	69796
291	69810
289	69823
289	69836
327	69850
372	69863
363	69876
339	69890
319	69902
303	69915
292	69927
286	69941
283	69954
282	69967
279	69981
282	69994
286	70007
293	70020
300	70033
306	70046
311	70060
313	70073
313	70086
313	70099
309	70113
306	70126
302	70138
300	70152
298	70165
298	70178
298	70192
298	70205
295	70218
292	70232
290	70245
290	70258
287	70270
293	70284
341	70297
369	70310
350	70324
325	70337
307	70350
295	70364
288	70377
283	70389
281	70403
281	70416
282	70429
285	70443
292	70456
299	70469
306	70482
312	70496
315	70508
316	70521
316	70535
314	70550
310	70563
307	70577
303	70590
300	70602
300	70616
300	70629
299	70642
296	70656
294	70669
291	70682
290	70695
289	70709
290	70722
324	70734
365	70748
353	70761
330	70774
313	70788
300	70801
292	70814
288	70828
285	70840
285	70853
287	70866
289	70880
294	70893
300	70906
307	70920
313	70933
316	70946
318	70960
316	70972
313	70985
310	70999
306	71012
303	71025
301	71038
299	71052
299	71065
300	71078
298	71091
294	71104
291	71117
290	71131
288	71144
286	71159
314	71173
362	71186
359	71198
337	71212
317	71226
302	71239
291	71257
284	71270
282	71283
281	71297
283	71310
286	71323
291	71336
297	71350
303	71362
310	71375
313	71389
314	71402
314	71415
311	71429
308	71442
304	71455
303	71469
302	71482
300	71495
301	71508
301	71522
299	71534
296	71547
294	71561
292	71574
291	71587
288	71601
317	71614
369	71627
366	71641
340	71654
318	71667
301	71681
289	71693
282	71706
277	71719
276	71733
277	71746
280	71759
284	71773
292	71787
299	71800
305	71814
309	71827
313	71840
313	71854
311	71866
307	71879
303	71892
300	71906
300	71919
298	71932
298	71946
298	71958
297	71971
295	71985
292	71998
288	72011
287	72025
286	72037
294	72050
347	72064
374	72077
358	72090
334	72103
313	72116
298	72129
288	72142
282	72156
280	72169
279	72182
281	72195
283	72208
287	72221
295	72235
302	72248
308	72261
312	72273
313	72287
313	72300
310	72313
306	72327
303	72340
300	72352
298	72366
296	72379
295	72394
295	72408
292	72420
291	72433
290	72446
289	72459
290	72472
287	72485
311	72499
364	72512
368	72525
344	72538
322	72551
306	72564
293	72578
286	72591
281	72604
279	72616
279	72630
281	72643
286	72656
292	72670
297	72683
304	72695
311	72709
313	72722
312	72735
313	72749
310	72762
306	72774
302	72787
301	72801
298	72814
298	72827
297	72841
296	72853
295	72866
292	72880
290	72893
289	72906
288	72920
289	72932
325	72945
369	72958
359	72972
335	72985
316	72998
300	73013
292	73026
286	73039
283	73053
283	73066
284	73079
287	73093
292	73105
298	73118
304	73132
310	73145
314	73158
315	73171
316	73185
314	73198
310	73211
305	73225
302	73238
300	73251
299	73264
298	73277
300	73290
298	73304
295	73317
291	73330
289	73344
288	73357
287	73370
311	73383
359	73396
358	73409
334	73422
316	73436
302	73449
292	73462
286	73476
283	73489
283	73502
284	73516
287	73528
292	73541
297	73554
304	73568
309	73581
314	73594
318	73608
318	73623
317	73636
313	73650
309	73662
305	73675
303	73689
301	73702
300	73715
299	73729
298	73742
295	73755
292	73768
289	73782
288	73794
286	73807
301	73822
354	73835
363	73848
340	73866
313	73879
298	73892
288	73906
283	73919
280	73932
281	73946
283	73959
287	73971
290	73985
295	73998
301	74011
306	74024
311	74038
313	74051
312	74064
311	74078
309	74091
305	74104
301	74118
299	74130
299	74143
300	74157
300	74170
298	74183
295	74196
290	74210
290	74223
289	74236
288	74251
316	74264
365	74277
364	74291
339	74304
319	74317
304	74331
293	74344
286	74357
283	74371
282	74384
282	74396
285	74409
288	74423
294	74436
300	74449
306	74463
310	74476
312	74489
311	74503
310	74516
306	74528
302	74542
299	74555
298	74568
296	74582
298	74595
298	74608
297	74621
295	74635
293	74648
290	74661
288	74674
287	74687
293	74700
341	74714
376	74727
360	74740
335	74754
315	74767
300	74780
289	74793
283	74807
280	74819
279	74832
280	74846
284	74859
288	74874
294	74888
302	74901
308	74913
312	74927
313	74940
313	74953
311	74967
308	74980
304	74993
301	75006
300	75020
299	75033
300	75045
300	75059
298	75072
295	75085
293	75099
291	75112
289	75125
285	75139
312	75152
368	75165
370	75179
345	75191
322	75204
304	75217
292	75231
283	75244
279	75257
277	75271
279	75284
282	75297
286	75311
292	75324
298	75336
306	75350
312	75363
315	75376
315	75389
314	75403
311	75416
307	75429
304	75443
301	75456
299	75468
299	75484
301	75497
299	75510
296	75524
293	75537
291	75550
289	75564
287	75577
297	75590
350	75602
370	75616
350	75629
327	75642
310	75656
297	75669
289	75682
285	75696
283	75709
283	75721
285	75735
288	75748
294	75761
300	75774
308	75788
313	75801
316	75814
318	75828
317	75841
314	75854
312	75867
306	75880
302	75893
298	75907
296	75920
296	75933
295	75947
292	75960
290	75973
287	75985
287	75999
287	76012
290	76025
331	76039
365	76052
349	76065
327	76079
311	76092
297	76106
290	76120
286	76133
284	76146
284	76160
286	76173
290	76186
295	76199
301	76213
308	76225
312	76238
315	76252
317	76265
317	76278
315	76292
311	76305
306	76318
302	76332
301	76345
301	76358
300	76370
299	76384
296	76397
293	76410
291	76424
290	76437
289	76451
295	76469
355	76482
358	76495
334	76509
313	76522
301	76535
291	76549
285	76561
282	76574
281	76588
281	76601
284	76614
288	76627
294	76641
301	76654
308	76667
313	76681
316	76693
317	76706
315	76719
313	76732
309	76745
305	76759
303	76772
302	76784
301	76797
300	76811
297	76824
294	76837
291	76851
290	76863
289	76876
287	76890
304	76903
354	76916
362	76930
341	76942
320	76955
305	76968
294	76982
287	76995
283	77008
281	77021
282	77034
286	77047
289	77061
293	77074
301	77087
307	77100
312	77113
315	77126
316	77139
315	77153
312	77166
308	77179
305	77192
303	77205
301	77218
300	77232
300	77245
298	77258
295	77271
292	77284
289	77297
287	77310
283	77324
329	77343
371	77357
358	77370
332	77383
313	77395
298	77409
288	77422
282	77435
279	77449
280	77462
281	77474
285	77488
290	77501
295	77514
302	77528
307	77541
311	77554
313	77566
313	77580
311	77593
307	77606
305	77620
303	77633
301	77645
301	77659
302	77672
301	77685
298	77699
294	77712
291	77725
290	77737
288	77751
291	77764
336	77777
373	77791
359	77804
334	77816
315	77830
300	77843
289	77856
283	77870
281	77883
282	77895
283	77908
286	77922
290	77935
296	77950
303	77963
309	77976
312	77989
313	78003
314	78016
311	78029
308	78043
304	78056
302	78069
300	78083
299	78096
300	78108
299	78121
296	78135
293	78148
290	78161
289	78175
286	78188
299	78201
354	78215
371	78228
351	78241
328	78255
310	78267
297	78280
288	78294
283	78307
281	78320
280	78333
282	78347
286	78360
292	78373
297	78387
303	78399
309	78412
312	78426
314	78439
314	78452
311	78466
308	78479
305	78492
304	78505
302	78519
302	78532
301	78544
298	78558
294	78573
291	78586
290	78600
288	78613
289	78626
332	78640
370	78653
352	78665
328	78679
309	78692
296	78705
286	78718
281	78732
279	78745
278	78758
280	78772
283	78785
288	78798
294	78812
301	78825
308	78837
312	78851
314	78864
315	78877
312	78891
308	78904
306	78917
304	78930
302	78944
301	78957
298	78970
297	78984
293	78996
291	79009
289	79024
287	79037
285	79050
312	79068
361	79081
344	79094
322	79108
305	79121
295	79134
288	79148
283	79161
281	79174
282	79188
285	79202
289	79215
294	79228
300	79242
308	79255
312	79268
316	79282
317	79295
316	79308
314	79322
310	79335
307	79348
304	79362
303	79374
301	79387
299	79400
296	79414
293	79427
290	79440
288	79454
285	79467
290	79480
332	79494
360	79507
341	79520
319	79534
303	79547
292	79559
286	79572
281	79586
281	79599
283	79612
285	79626
288	79639
294	79652
299	79666
304	79679
310	79692
313	79706
315	79719
314	79731
312	79745
308	79758
306	79771
303	79784
301	79798
302	79813
301	79826
299	79840
295	79853
292	79866
290	79879
287	79892
296	79905
344	79919
363	79932
344	79945
322	79959
306	79972
295	79985
288	79998
284	80012
282	80025
282	80037
284	80051
287	80064
292	80077
298	80091
304	80104
308	80117
311	80131
312	80144
311	80157
309	80171
306	80184
304	80197
301	80209
302	80223
301	80236
300	80249
296	80263
293	80276
291	80289
290	80303
286	80316
295	80329
344	80343
369	80355
350	80368
326	80381
309	80395
295	80408
286	80423
282	80437
280	80450
280	80463
283	80477
286	80489
291	80502
297	80516
302	80529
308	80542
311	80556
312	80569
311	80582
309	80595
307	80609
305	80622
303	80635
303	80648
303	80661
301	80674
299	80688
296	80701
293	80714
291	80728
288	80741
297	80754
351	80768
378	80781
357	80794
330	80807
310	80820
295	80833
285	80846
280	80860
276	80873
275	80886
278	80900
282	80913
287	80926
293	80940
300	80953
305	80966
309	80979
310	80992
309	81005
307	81018
305	81032
304	81047
303	81060
302	81074
302	81087
301	81100
299	81114
296	81127
292	81139
290	81153
288	81166
292	81179
338	81192
375	81206
358	81219
333	81232
314	81246
298	81259
288	81272
282	81285
279	81298
277	81311
279	81325
282	81338
286	81351
293	81364
300	81378
306	81391
310	81404
311	81418
311	81431
309	81444
306	81457
304	81470
303	81483
301	81497
301	81510
300	81523
298	81537
295	81550
291	81563
288	81576
287	81590
285	81603
303	81615
356	81630
364	81643
339	81656
310	81676
296	81689
287	81702
282	81716
280	81729
280	81741
282	81755
285	81768
289	81781
294	81795
302	81808
307	81820
311	81833
313	81847
312	81860
310	81873
307	81887
304	81900
303	81912
301	81926
301	81939
302	81952
300	81966
297	81979
294	81992
290	82004
290	82018
288	82031
300	82044
346	82058
358	82071
337	82084
316	82097
302	82110
293	82123
287	82137
284	82150
283	82163
283	82177
285	82189
288	82202
293	82215
299	82229
306	82242
311	82255
314	82269
314	82283
312	82296
309	82309
306	82322
303	82335
302	82349
301	82362
300	82375
299	82388
297	82402
295	82414
292	82427
290	82441
288	82454
287	82467
314	82481
359	82494
355	82506
333	82520
314	82533
301	82546
292	82560
287	82573
285	82585
284	82598
284	82612
287	82625
292	82638
295	82652
303	82665
309	82677
314	82691
316	82704
315	82717
313	82731
312	82744
308	82756
306	82769
304	82783
301	82796
299	82809
296	82823
300	82835
300	82848
298	82862
295	82875
293	82888
291	82903
317	82916
364	82929
360	82942
336	82956
316	82969
302	82982
292	82996
284	83009
282	83022
281	83036
282	83049
285	83061
288	83075
294	83088
300	83101
306	83115
311	83128
314	83141
313	83154
313	83168
310	83181
307	83194
304	83208
301	83220
299	83233
299	83247
299	83260
296	83273
295	83287
293	83300
291	83313
290	83326
288	83340
299	83353
350	83366
368	83379
347	83392
325	83405
309	83419
296	83432
288	83445
283	83459
281	83472
281	83485
282	83499
287	83511
292	83524
298	83537
305	83551
312	83563
316	83576
316	83590
314	83603
311	83616
308	83630
304	83643
300	83656
298	83670
297	83683
297	83696
297	83709
296	83723
293	83735
290	83748
288	83762
286	83775
284	83788
306	83802
362	83815
370	83828
345	83842
322	83855
305	83868
292	83880
285	83894
280	83907
279	83920
280	83934
282	83947
286	83960
290	83974
295	83987
302	84000
307	84014
311	84026
312	84039
310	84052
307	84066
304	84079
300	84092
299	84106
298	84119
297	84134
298	84148
298	84160
296	84173
293	84187
291	84200
291	84213
290	84227
289	84240
312	84254
364	84272
357	84285
332	84298
314	84312
300	84325
292	84338
287	84352
284	84365
284	84377
285	84390
288	84404
292	84417
298	84430
304	84444
309	84457
314	84470
316	84484
315	84497
312	84510
308	84524
303	84537
299	84549
298	84562
296	84576
296	84589
297	84602
295	84616
295	84629
293	84642
292	84656
291	84669
290	84682
288	84696
318	84708
361	84721
353	84734
331	84750
311	84763
299	84776
290	84790
286	84803
283	84816
283	84830
286	84843
288	84855
293	84869
299	84882
304	84895
312	84909
316	84922
319	84935
319	84948
316	84962
311	84975
307	84988
304	85002
302	85015
300	85027
300	85041
300	85054
299	85067
297	85081
294	85094
292	85107
290	85121
288	85134
295	85147
339	85160
362	85173
341	85186
319	85199
304	85213
294	85226
287	85239
283	85253
283	85266
283	85279
286	85293
288	85306
295	85319
301	85332
309	85345
314	85358
318	85373
318	85387
315	85400
313	85413
311	85427
306	85440
303	85453
301	85466
301	85479
301	85492
301	85506
299	85519
295	85532
295	85545
292	85559
291	85572
290	85585
299	85599
344	85612
367	85624
347	85638
325	85651
308	85664
297	85678
290	85691
285	85704
283	85718
283	85731
286	85744
290	85757
295	85771
300	85783
307	85796
311	85810
314	85823
314	85836
313	85850
311	85863
308	85876
304	85890
300	85903
297	85916
295	85929
295	85943
296	85955
296	85968
294	85984
291	85997
289	86010
286	86024
285	86037
288	86050
326	86064
369	86077
359	86089
334	86103
315	86116
299	86129
289	86142
286	86156
283	86169
282	86182
282	86196
286	86209
291	86222
298	86236
304	86249
309	86261
313	86275
316	86288
315	86301
312	86315
308	86328
304	86341
301	86354
298	86368
295	86381
296	86394
297	86407
297	86420
298	86433
295	86447
291	86460
292	86473
290	86487
288	86500
296	86513
345	86526
373	86540
354	86552
330	86565
313	86579
300	86592
289	86607
284	86621
281	86634
281	86647
283	86660
287	86673
291	86686
297	86700
304	86713
310	86726
313	86738
315	86752
314	86765
311	86778
306	86792
305	86805
300	86818
298	86831
298	86845
297	86858
299	86876
297	86889
295	86902
293	86916
291	86929
290	86942
287	86955
302	86968
351	86981
360	86994
342	87008
322	87021
305	87033
296	87047
289	87060
285	87073
286	87087
287	87100
289	87113
293	87126
298	87139
304	87152
311	87165
315	87179
320	87192
322	87205
322	87220
318	87233
312	87246
307	87260
303	87272
299	87285
298	87299
297	87312
298	87325
296	87339
293	87351
289	87364
289	87377
288	87391
286	87404
299	87417
346	87431
355	87443
334	87456
313	87470
300	87483
291	87496
285	87510
283	87523
285	87535
287	87548
288	87562
292	87575
298	87588
304	87602
311	87615
315	87627
318	87641
319	87654
317	87667
316	87681
311	87694
307	87706
303	87719
299	87733
298	87746
298	87759
298	87773
297	87785
295	87798
292	87812
289	87825
288	87840
287	87854
315	87867
357	87880
351	87892
330	87906
313	87919
299	87932
292	87946
288	87959
286	87972
287	87986
289	87999
291	88012
295	88026
301	88039
307	88051
313	88065
317	88078
319	88091
319	88104
317	88118
312	88131
307	88144
303	88158
299	88171
296	88184
295	88198
296	88210
297	88223
295	88237
292	88250
291	88263
289	88276
288	88290
287	88303
320	88316
359	88330
349	88343
328	88356
311	88369
300	88382
290	88395
285	88409
284	88422
284	88435
286	88449
289	88464
294	88476
300	88489
306	88503
311	88516
314	88529
316	88543
316	88556
313	88569
309	88583
305	88596
302	88609
300	88623
299	88635
299	88648
300	88662
300	88675
297	88688
295	88701
293	88715
292	88728
290	88741
291	88755
331	88768
370	88781
356	88794
332	88807
312	88820
298	88834
289	88847
283	88860
280	88873
280	88887
281	88900
284	88913
289	88927
298	88940
305	88952
311	88966
314	88979
316	88992
315	89006
311	89019
307	89032
304	89046
300	89059
298	89073
298	89086
298	89100
299	89113
297	89126
293	89140
291	89153
289	89166
287	89180
285	89193
292	89206
343	89220
371	89232
355	89245
332	89259
312	89272
298	89285
289	89298
282	89312
280	89325
280	89338
282	89352
286	89365
292	89378
299	89392
305	89404
311	89417
314	89431
314	89444
313	89458
310	89472
306	89489
300	89502
297	89516
296	89529
295	89542
295	89555
294	89569
292	89582
289	89595
288	89608
287	89621
285	89634
284	89648
321	89661
368	89674
359	89688
332	89703
313	89716
298	89730
288	89743
284	89755
283	89768
283	89782
283	89795
286	89808
292	89822
299	89835
305	89848
311	89862
315	89875
316	89888
316	89902
313	89915
308	89928
302	89940
300	89954
298	89967
297	89980
296	89994
296	90007
296	90020
293	90034
292	90047
290	90060
290	90074
288	90087
297	90099
345	90113
367	90126
347	90139
324	90152
308	90166
296	90179
289	90192
285	90206
283	90219
284	90232
286	90246
289	90259
294	90272
301	90285
307	90298
313	90310
316	90323
317	90337
317	90350
314	90363
310	90377
303	90390
300	90403
299	90416
299	90429
299	90442
298	90456
295	90469
292	90482
288	90496
288	90509
288	90522
287	90535
313	90549
360	90562
356	90575
333	90589
313	90601
300	90614
291	90628
285	90641
283	90654
282	90668
284	90681
288	90694
292	90707
298	90721
305	90734
311	90747
315	90761
318	90773
318	90786
316	90800
312	90813
308	90826
304	90840
301	90853
298	90866
299	90880
299	90893
298	90906
296	90919
293	90934
291	90947
290	90960
288	90974
298	90987
346	91000
366	91014
344	91027
321	91040
305	91054
294	91067
287	91079
284	91092
282	91106
282	91119
285	91132
291	91146
297	91159
304	91172
309	91186
311	91199
315	91212
316	91226
315	91239
312	91251
308	91265
305	91278
302	91291
299	91304
298	91318
298	91331
298	91344
296	91358
293	91371
290	91384
287	91398
286	91411
290	91424
328	91437
367	91450
354	91463
331	91476
313	91490
299	91503
291	91516
286	91530
284	91545
284	91557
286	91571
290	91584
295	91597
303	91611
309	91624
314	91637
317	91650
318	91663
317	91676
314	91689
310	91703
305	91716
302	91728
299	91742
298	91755
298	91768
298	91782
296	91795
293	91808
290	91821
289	91834
288	91847
286	91860
314	91874
362	91887
359	91900
335	91913
316	91926
302	91939
292	91953
285	91966
283	91979
282	91993
284	92005
286	92018
290	92032
296	92045
303	92058
307	92071
311	92089
314	92102
315	92116
311	92130
309	92142
304	92155
300	92171
298	92183
298	92196
298	92210
297	92223
294	92236
290	92250
291	92263
290	92275
290	92289
292	92302
335	92315
373	92328
353	92342
327	92355
308	92367
293	92381
286	92394
281	92407
279	92421
279	92434
280	92447
284	92461
290	92473
298	92486
305	92499
311	92513
315	92526
318	92539
319	92553
315	92566
312	92578
307	92592
304	92605
302	92618
300	92632
300	92645
297	92658
295	92670
291	92684
288	92697
285	92710
282	92724
286	92737
331	92750
368	92764
351	92778
323	92791
306	92805
293	92818
285	92831
281	92845
279	92858
280	92871
282	92884
287	92898
292	92911
299	92923
307	92937
313	92950
316	92963
318	92977
317	92990
313	93003
309	93017
306	93030
303	93043
300	93057
299	93070
298	93083
295	93096
292	93110
288	93123
286	93136
285	93149
282	93162
300	93175
356	93189
364	93202
340	93215
318	93229
302	93242
290	93255
283	93268
279	93282
280	93295
282	93308
285	93322
290	93335
296	93348
302	93361
309	93374
315	93387
319	93403
319	93416
317	93429
313	93443
308	93456
305	93469
302	93483
299	93496
301	93508
300	93521
297	93535
292	93548
289	93561
288	93575
286	93588
292	93601
340	93615
361	93628
339	93641
318	93655
304	93668
295	93681
288	93693
285	93707
284	93720
285	93733
288	93747
292	93760
299	93773
305	93787
311	93800
317	93813
320	93827
320	93840
317	93853
313	93867
307	93879
304	93892
300	93905
300	93919
299	93932
298	93945
299	93959
293	93972
289	93985
289	93999
288	94014
287	94027
327	94040
360	94053
345	94066
322	94080
306	94093
295	94106
287	94119
280	94133
279	94146
282	94159
283	94173
287	94186
294	94199
298	94212
307	94225
315	94238
318	94252
319	94265
315	94278
312	94291
308	94305
305	94318
301	94331
300	94345
298	94358
298	94371
297	94385
295	94398
293	94410
290	94424
289	94437
287	94450
316	94464
360	94477
353	94490
330	94503
312	94517
299	94530
292	94543
285	94557
284	94570
284	94582
285	94596
291	94609
294	94622
303	94638
307	94651
314	94664
315	94678
319	94696
315	94709
312	94723
307	94736
306	94749
303	94763
299	94776
302	94789
301	94802
296	94815
292	94828
290	94841
287	94855
285	94868
294	94881
339	94895
361	94908
343	94921
323	94935
306	94948
294	94961
285	94974
281	94988
276	95001
281	95014
281	95028
289	95041
292	95054
303	95067
306	95080
315	95093
317	95107
320	95120
319	95133
317	95147
312	95160
311	95173
310	95186
304	95200
306	95213
302	95226
301	95240
299	95253
293	95267
291	95281
289	95294
300	95307
347	95321
363	95334
342	95347
321	95361
303	95374
291	95387
283	95400
283	95414
282	95426
282	95439
284	95453
287	95466
293	95479
302	95493
305	95506
307	95519
309	95533
309	95546
308	95559
307	95572
305	95586
303	95599
300	95612
299	95625
299	95638
297	95651
294	95665
288	95678
287	95691
285	95705
282	95718
291	95731
343	95745
366	95758
345	95771
323	95784
306	95798
293	95811
285	95824
280	95837
278	95850
279	95863
281	95879
287	95892
293	95905
301	95919
306	95932
310	95945
312	95959
311	95972
309	95985
305	95997
302	96011
299	96024
297	96037
297	96051
296	96064
295	96077
292	96091
289	96104
286	96117
285	96131
283	96144
290	96157
341	96171
375	96183
355	96196
330	96209
310	96223
295	96236
286	96249
280	96263
279	96276
279	96289
280	96303
284	96316
290	96329
298	96343
306	96356
312	96369
314	96382
314	96395
310	96408
306	96421
301	96435
299	96448
299	96461
298	96475
299	96488
298	96503
295	96517
293	96529
290	96542
289	96556
288	96569
289	96582
327	96595
368	96609
352	96621
327	96634
308	96648
295	96661
287	96674
282	96688
280	96701
281	96713
282	96727
286	96740
291	96753
299	96766
307	96780
314	96793
319	96805
319	96819
316	96832
313	96845
309	96859
304	96872
300	96885
299	96899
299	96911
301	96924
299	96937
296	96951
293	96964
290	96977
289	96990
287	97003
308	97016
354	97030
353	97043
332	97056
313	97070
301	97082
292	97095
286	97107
284	97121
283	97133
284	97146
287	97160
291	97173
297	97186
305	97200
312	97213
316	97226
318	97239
316	97252
312	97265
308	97278
305	97292
303	97310
301	97324
301	97337
300	97350
298	97362
295	97376
292	97389
290	97402
288	97416
286	97429
298	97441
345	97455
360	97468
338	97481
317	97495
303	97508
294	97521
288	97533
285	97547
284	97560
286	97573
289	97587
292	97600
296	97613
304	97626
311	97639
317	97652
319	97666
318	97679
315	97692
310	97705
307	97718
304	97733
303	97746
304	97760
303	97773
302	97786
299	97800
296	97813
293	97825
291	97839
289	97852
289	97865
312	97879
358	97892
358	97905
336	97918
317	97932
303	97945
293	97958
287	97972
284	97985
284	97997
286	98011
288	98024
292	98037
297	98051
304	98064
309	98077
312	98091
314	98104
312	98117
309	98130
306	98144
302	98157
299	98169
297	98183
296	98196
295	98209
296	98223
295	98236
294	98249
295	98263
294	98276
294	98289
292	98302
297	98316
339	98328
368	98343
348	98357
325	98370
310	98383
297	98397
289	98410
285	98423
283	98437
283	98450
284	98463
289	98476
295	98489
303	98502
310	98515
314	98529
317	98542
316	98555
314	98569
310	98582
305	98595
302	98609
299	98622
298	98635
298	98648
297	98661
297	98674
298	98688
296	98701
293	98714
291	98727
288	98741
287	98754
288	98767
329	98781
370	98794
355	98806
330	98820
311	98833
296	98846
286	98860
281	98873
279	98886
279	98899
280	98913
284	98926
291	98939
300	98953
311	98967
317	98980
318	98994
317	99007
312	99020
312	99034
309	99047
305	99060
300	99074
295	99087
295	99099
293	99112
295	99126
295	99139
294	99152
291	99166
291	99179
291	99192
289	99206
286	99219
299	99232
352	99246
372	99259
350	99272
325	99284
308	99298
296	99311
288	99324
282	99338
282	99351
283	99364
285	99378
289	99391
295	99404
303	99418
311	99431
316	99443
318	99457
316	99470
312	99483
306	99496
301	99510
296	99523
293	99536
291	99550
291	99563
290	99577
292	99591
293	99604
292	99617
287	99631
286	99644
285	99657
292	99671
292	99684
309	99697
360	99710
375	99723
350	99736
328	99749
310	99763
298	99776
291	99789
287	99803
285	99816
285	99829
285	99843
291	99856
297	99869
307	99883
315	99896
320	99913
319	99927
315	99941
312	99954
308	99966
304	99980
300	99993
297	100006
294	100020
294	100034
295	100047
297	100061
298	100075
296	100088
293	100102
291	100116
290	100129
288	100143
299	100157
348	100170
365	100184
337	100199
314	100213
299	100227
289	100240
284	100254
281	100268
282	100281
283	100295
287	100308
294	100322
303	100336
312	100349
318	100363
322	100377
324	100390
320	100404
313	100418
310	100431
305	100445
300	100458
298	100472
297	100486
297	100499
298	100513
298	100527
296	100540
293	100554
292	100568
291	100581
290	100595
295	100609
336	100622
364	100636
344	100649
321	100663
305	100677
296	100690
291	100704
287	100718
287	100731
287	100745
291	100758
297	100774
305	100788
312	100801
318	100815
322	100829
322	100842
319	100855
314	100870
308	100883
304	100896
300	100911
296	100924
295	100937
294	100952
295	100965
294	100978
294	100993
292	101006
289	101019
287	101033
285	101047
289	101060
330	101073
362	101088
345	101101
322	101114
307	101129
295	101142
289	101155
285	101170
283	101183
284	101196
286	101211
290	101224
297	101237
305	101251
310	101265
316	101278
316	101292
317	101306
315	101319
310	101332
306	101347
299	101362
296	101376
296	101389
298	101402
300	101416
300	101430
298	101443
295	101457
293	101471
292	101484
292	101497
292	101512
327	101525
369	101538
356	101552
330	101565
311	101579
297	101593
287	101606
281	101619
280	101634
280	101647
282	101660
286	101673
292	101688
299	101701
307	101714
314	101728
318	101742
316	101755
314	101769
311	101782
308	101796
306	101810
302	101823
300	101836
298	101851
297	101864
296	101877
296	101891
295	101905
293	101918
291	101932
289	101947
287	101960
310	101974
361	101987
362	102000
341	102014
320	102028
304	102041
292	102054
285	102069
280	102082
280	102095
283	102109
287	102123
293	102136
301	102150
310	102163
316	102177
320	102191
319	102204
316	102217
311	102231
306	102245
301	102258
298	102272
295	102285
294	102299
293	102312
293	102326
292	102339
290	102353
287	102367
285	102380
284	102393
281	102408
299	102421
356	102434
367	102448
343	102462
321	102475
304	102489
293	102502
284	102517
281	102532
281	102545
282	102559
286	102573
291	102591
302	102604
309	102619
314	102632
314	102646
312	102660
308	102673
307	102686
304	102701
301	102714
298	102727
296	102742
294	102755
295	102768
295	102781
293	102796
291	102809
289	102822
288	102837
286	102850
292	102863
340	102878
374	102891
355	102904
329	102919
310	102932
297	102945
289	102959
284	102973
282	102986
282	103000
285	103014
289	103027
296	103041
304	103055
312	103068
317	103081
318	103096
316	103111
313	103124
308	103138
302	103152
299	103165
298	103179
300	103193
302	103206
301	103220
299	103234
294	103247
291	103261
290	103274
288	103288
288	103302
318	103315
363	103329
354	103343
330	103356
312	103370
298	103384
288	103397
285	103411
285	103425
285	103438
286	103451
289	103465
295	103479
303	103492
311	103506
317	103520
319	103533
318	103547
315	103561
312	103574
307	103588
303	103602
301	103615
299	103628
298	103643
297	103656
295	103669
291	103684
288	103699
285	103712
283	103726
283	103740
314	103753
357	103767
344	103781
320	103794
303	103808
291	103822
285	103835
281	103848
280	103863
280	103876
285	103889
290	103904
297	103917
305	103930
311	103944
316	103958
316	103971
316	103985
313	103999
308	104012
305	104026
302	104040
299	104053
298	104067
297	104081
297	104094
296	104108
294	104121
291	104135
289	104148
288	104162
288	104176
321	104189
362	104203
349	104217
326	104230
308	104244
297	104257
289	104273
285	104287
284	104300
285	104314
288	104328
292	104341
299	104354
306	104369
311	104382
316	104395
316	104410
314	104423
311	104436
307	104451
302	104464
300	104477
298	104491
296	104505
297	104518
296	104531
294	104546
291	104559
290	104572
289	104587
289	104600
287	104613
316	104628
364	104641
357	104654
333	104668
314	104682
300	104695
290	104709
284	104723
283	104736
282	104750
284	104763
288	104777
293	104791
301	104804
309	104818
315	104832
317	104845
317	104860
315	104875
311	104888
306	104901
304	104915
301	104929
300	104942
301	104956
300	104970
299	104983
296	104996
293	105011
290	105024
289	105037
286	105052
317	105065
371	105078
364	105093
336	105106
313	105119
296	105134
285	105147
278	105160
277	105175
278	105188
279	105201
283	105214
290	105229
298	105242
305	105256
312	105275
315	105288
315	105303
312	105316
307	105329
303	105344
300	105357
298	105370
297	105383
297	105398
296	105411
293	105424
290	105439
287	105454
286	105467
283	105482
294	105495
351	105508
370	105522
350	105536
326	105549
307	105563
293	105577
284	105590
279	105604
278	105618
278	105631
281	105645
287	105659
295	105672
304	105686
311	105700
315	105713
316	105726
315	105741
311	105754
307	105767
303	105782
299	105795
297	105808
296	105823
295	105836
294	105849
291	105864
288	105877
285	105890
284	105904
282	105918
303	105931
359	105945
365	105959
340	105972
319	105986
304	106000
294	106013
288	106029
283	106042
282	106056
284	106070
289	106083
295	106096
303	106110
310	106124
316	106137
318	106150
317	106165
314	106178
310	106191
305	106205
302	106218
300	106232
298	106246
297	106259
297	106273
295	106287
292	106300
288	106313
287	106328
286	106341
288	106354
323	106368
360	106381
344	106395
321	106408
305	106422
294	106435
287	106449
284	106463
284	106476
285	106489
287	106504
290	106517
296	106530
304	106544
310	106557
314	106571
315	106585
314	106598
310	106613
307	106627
304	106640
302	106653
301	106668
302	106681
301	106694
298	106707
297	106722
295	106735
293	106748
293	106762
288	106776
307	106789
347	106803
346	106816
324	106830
308	106844
298	106857
291	106870
288	106885
287	106898
288	106911
291	106925
294	106939
302	106952
307	106966
312	106979
315	106992
314	107006
316	107020
313	107033
311	107046
309	107061
308	107074
307	107087
306	107101
307	107115
305	107128
303	107142
298	107155
295	107169
293	107183
291	107198
302	107211
339	107226
337	107239
313	107252
297	107266
290	107280
286	107293
284	107307
283	107321
284	107334
288	107347
293	107362
298	107375
305	107388
312	107402
315	107416
314	107429
314	107443
311	107457
307	107470
304	107484
304	107498
302	107511
301	107525
302	107538
301	107552
299	107566
296	107579
292	107593
290	107607
290	107620
295	107634
331	107648
351	107661
331	107675
312	107688
300	107702
292	107716
287	107729
287	107743
287	107757
289	107772
293	107786
298	107799
305	107813
312	107827
318	107840
322	107854
324	107868
323	107881
320	107894
315	107909
311	107922
306	107936
303	107955
300	107968
298	107982
295	107996
291	108009
289	108023
288	108037
287	108050
289	108064
330	108078
358	108091
339	108105
318	108119
304	108132
295	108146
287	108160
284	108173
283	108186
284	108200
288	108214
293	108227
298	108241
304	108255
311	108268
316	108282
319	108296
318	108309
315	108323
310	108337
307	108350
304	108366
301	108380
299	108393
298	108407
297	108421
295	108434
292	108448
290	108462
289	108475
287	108489
301	108503
352	108516
362	108529
339	108544
317	108557
302	108570
292	108584
285	108598
282	108611
281	108625
281	108639
284	108652
289	108666
296	108680
304	108693
310	108707
314	108721
314	108734
313	108748
310	108762
307	108775
306	108789
304	108803
302	108816
300	108829
299	108844
297	108857
294	108870
291	108884
288	108898
287	108911
285	108925
303	108939
361	108954
362	108967
338	108982
317	108995
301	109008
290	109023
284	109036
281	109049
280	109064
281	109077
285	109090
291	109105
298	109118
307	109131
312	109146
315	109159
316	109172
315	109186
312	109200
307	109213
303	109227
301	109241
299	109254
299	109267
299	109282
296	109295
293	109308
291	109323
287	109336
285	109349
282	109364
303	109377
361	109390
367	109405
341	109418
318	109431
301	109445
289	109459
282	109472
278	109486
278	109500
280	109513
284	109529
292	109543
301	109556
308	109570
313	109584
315	109597
315	109611
311	109624
308	109638
304	109651
300	109665
298	109679
296	109692
296	109706
296	109720
295	109733
293	109747
291	109761
290	109774
288	109788
285	109802
297	109815
353	109829
370	109843
348	109856
324	109870
306	109884
293	109897
286	109911
282	109924
281	109938
282	109952
285	109965
290	109979
297	109992
305	110006
312	110020
315	110033
316	110047
314	110061
310	110074
306	110088
301	110102
298	110117
296	110131
294	110144
295	110158
295	110172
293	110185
291	110199
289	110213
290	110226
290	110240
290	110254
327	110267
372	110281
359	110295
333	110308
314	110322
300	110336
289	110349
283	110363
281	110376
282	110390
284	110404
288	110417
294	110431
301	110445
309	110458
315	110472
317	110486
316	110499
313	110513
309	110527
305	110540
302	110554
299	110568
297	110581
296	110595
297	110609
296	110622
294	110641
291	110655
289	110668
288	110682
290	110696
341	110711
369	110725
347	110738
322	110751
304	110766
291	110779
284	110792
281	110806
280	110820
281	110833
284	110846
289	110861
296	110874
304	110887
311	110901
317	110915
318	110928
319	110942
316	110955
312	110969
307	110983
303	110996
300	111009
298	111024
298	111037
298	111050
297	111064
295	111078
293	111091
291	111105
290	111118
289	111132
315	111145
366	111159
362	111172
338	111186
317	111200
302	111213
291	111226
284	111241
281	111254
280	111267
281	111283
287	111297
292	111309
299	111324
308	111337
315	111350
317	111364
316	111378
317	111391
315	111405
311	111418
307	111432
300	111446
300	111459
298	111472
300	111486
298	111500
296	111513
294	111526
291	111541
290	111554
290	111567
299	111581
353	111595
366	111608
344	111622
322	111635
306	111649
294	111663
287	111676
281	111689
281	111704
283	111717
286	111730
288	111744
291	111758
302	111771
310	111784
313	111798
313	111812
315	111825
312	111839
310	111852
308	111867
302	111882
297	111895
296	111908
297	111923
295	111936
292	111949
288	111964
284	111977
281	111990
278	112005
280	112018
321	112031
364	112046
349	112059
323	112072
304	112086
290	112100
283	112113
278	112126
278	112141
278	112154
281	112167
286	112182
293	112195
300	112208
308	112223
314	112236
317	112249
317	112264
314	112277
308	112290
301	112305
300	112318
298	112331
296	112345
299	112359
298	112372
296	112386
292	112400
286	112413
288	112427
288	112441
285	112456
317	112470
366	112483
356	112497
331	112510
311	112524
297	112538
287	112551
282	112565
281	112579
282	112592
284	112606
288	112620
294	112633
303	112647
312	112660
317	112674
320	112688
322	112701
320	112715
316	112729
311	112742
308	112756
305	112770
304	112783
302	112797
302	112811
301	112824
299	112838
295	112851
293	112865
289	112878
288	112892
319	112906
368	112919
355	112933
328	112947
308	112960
296	112974
288	112988
284	113001
282	113015
283	113031
286	113044
290	113057
296	113072
303	113085
311	113098
314	113113
317	113126
317	113139
314	113154
311	113167
306	113180
302	113195
301	113208
301	113221
302	113234
301	113249
299	113262
295	113276
293	113290
291	113304
289	113321
296	113336
346	113349
367	113363
342	113377
320	113390
304	113404
293	113418
285	113431
282	113444
284	113459
286	113472
289	113485
293	113500
300	113513
308	113526
314	113541
318	113554
320	113567
319	113582
316	113595
311	113608
307	113624
304	113638
301	113651
301	113665
300	113679
298	113692
295	113705
292	113720
291	113733
289	113746
286	113761
302	113774
357	113787
367	113802
341	113815
319	113828
302	113843
291	113856
284	113869
279	113884
279	113897
281	113910
284	113925
290	113938
295	113951
302	113966
308	113979
312	113992
315	114007
315	114020
312	114033
308	114048
303	114061
300	114074
298	114088
298	114102
298	114115
297	114129
295	114143
291	114156
289	114170
288	114184
284	114197
310	114212
366	114227
362	114240
333	114253
312	114268
298	114281
287	114294
280	114309
278	114322
277	114335
280	114350
282	114363
288	114376
296	114391
305	114404
311	114417
317	114430
320	114445
318	114458
313	114471
309	114486
306	114499
304	114512
301	114527
301	114540
298	114553
295	114568
291	114581
288	114594
286	114609
283	114622
280	114635
314	114649
365	114663
357	114676
331	114690
311	114704
295	114717
285	114731
281	114745
278	114758
278	114771
281	114787
285	114801
292	114814
300	114828
308	114842
315	114855
319	114869
320	114883
319	114896
315	114910
309	114924
304	114937
301	114951
298	114965
299	114978
297	114992
294	115005
291	115019
288	115033
286	115046
284	115060
288	115074
338	115087
367	115101
344	115115
320	115128
304	115142
292	115155
285	115169
282	115183
281	115196
282	115210
286	115224
291	115237
298	115251
306	115265
313	115278
318	115292
321	115305
322	115319
320	115333
314	115346
309	115360
305	115376
302	115389
301	115402
298	115417
297	115430
294	115443
292	115457
289	115470
287	115484
283	115497
303	115511
354	115524
353	115538
329	115552
311	115565
299	115578
289	115593
284	115606
283	115619
284	115633
285	115647
288	115660
293	115674
301	115687
309	115701
316	115715
320	115728
321	115741
319	115756
316	115769
311	115782
307	115795
303	115810
300	115823
298	115836
298	115850
296	115864
293	115877
289	115891
287	115904
286	115918
283	115932
318	115945
360	115965
335	115980
313	115997
296	116012
286	116025
281	116038
279	116052
280	116066
282	116079
287	116092
292	116107
299	116120
305	116133
312	116147
317	116161
320	116174
319	116188
314	116202
310	116215
305	116229
303	116242
302	116256
301	116270
301	116283
297	116296
294	116311
291	116324
289	116337
287	116350
287	116365
333	116378
372	116391
353	116406
327	116419
308	116432
294	116446
286	116460
281	116473
279	116487
280	116500
282	116514
286	116528
292	116543
300	116556
307	116571
313	116584
316	116597
317	116612
314	116625
311	116638
307	116653
304	116666
301	116679
299	116694
300	116707
297	116720
294	116734
289	116748
286	116761
285	116775
282	116789
310	116802
365	116816
362	116830
336	116843
316	116857
299	116871
288	116884
283	116898
280	116912
280	116925
281	116939
283	116953
290	116966
297	116980
304	116994
310	117007
313	117021
316	117035
315	117048
312	117062
308	117075
304	117089
301	117103
300	117116
301	117132
299	117145
294	117159
291	117173
289	117186
288	117200
283	117214
297	117227
357	117241
368	117255
343	117268
321	117282
303	117296
291	117310
284	117323
280	117337
279	117351
281	117364
284	117378
290	117392
297	117405
305	117419
310	117433
314	117446
315	117459
315	117474
313	117487
309	117500
305	117515
302	117528
302	117541
301	117555
300	117569
297	117582
292	117596
289	117610
289	117623
286	117638
290	117651
340	117664
361	117679
340	117692
319	117705
302	117721
291	117735
285	117748
282	117762
283	117776
285	117789
289	117803
294	117817
301	117830
309	117843
316	117858
321	117871
323	117884
322	117899
318	117912
313	117925
308	117940
304	117953
303	117966
301	117981
299	117994
296	118007
293	118022
290	118035
288	118049
285	118063
293	118076
343	118090
360	118104
337	118117
315	118131
300	118145
291	118158
286	118172
283	118185
284	118199
286	118212
289	118226
295	118240
303	118253
310	118267
317	118281
322	118296
325	118310
324	118324
322	118337
317	118351
312	118365
310	118378
308	118392
308	118406
305	118419
302	118433
300	118447
296	118460
293	118474
289	118488
304	118501
354	118515
363	118529
341	118542
320	118556
305	118569
295	118583
289	118597
286	118610
286	118624
287	118638
291	118651
295	118666
301	118684
310	118697
316	118712
319	118725
320	118738
317	118753
313	118766
309	118779
305	118794
301	118807
299	118820
297	118835
293	118848
287	118861
282	118876
278	118891
275	118904
274	118918
311	118932
352	118945
338	118960
315	118973
297	118986
284	119001
275	119014
271	119027
269	119042
269	119055
271	119068
275	119083
280	119096
287	119109
292	119123
296	119137
299	119150
300	119164
298	119178
294	119191
291	119205
289	119219
288	119232
286	119246
285	119260
282	119273
279	119287
275	119301
273	119315
270	119328
269	119342
305	119356
350	119369
342	119383
320	119397
300	119410
285	119424
276	119438
270	119451
268	119464
268	119480
270	119494
274	119507
279	119521
285	119535
291	119548
296	119562
300	119576
301	119589
300	119603
298	119617
297	119630
295	119644
294	119658
295	119671
294	119685
293	119699
290	119712
287	119726
285	119740
283	119753
287	119768
333	119781
363	119794
350	119809
327	119822
308	119835
295	119849
286	119863
281	119876
280	119890
281	119904
283	119917
287	119931
292	119945
299	119958
307	119972
312	119986
316	119999
316	120013
314	120027
312	120040
309	120055
306	120070
306	120083
307	120096
305	120111
302	120124
297	120137
293	120151
291	120165
288	120178
305	120192
353	120205
359	120219
340	120232
319	120246
305	120260
295	120273
290	120287
287	120300
285	120314
287	120328
290	120341
295	120354
301	120369
308	120382
314	120395
319	120409
321	120423
321	120436
319	120450
317	120463
315	120477
313	120491
312	120504
311	120518
309	120531
304	120545
300	120558
297	120572
294	120586
292	120599
319	120612
360	120627
348	120642
326	120655
310	120669
298	120682
291	120695
287	120710
285	120723
285	120736
285	120750
289	120764
294	120777
300	120791
307	120805
312	120818
315	120832
318	120845
317	120859
315	120872
312	120886
310	120899
308	120913
308	120927
308	120940
305	120953
301	120968
297	120981
294	120994
291	121008
293	121022
331	121035
365	121049
352	121062
329	121076
312	121090
299	121103
289	121116
285	121131
282	121144
285	121157
287	121171
292	121185
297	121198
304	121211
310	121227
315	121241
317	121254
318	121268
316	121282
315	121295
312	121309
310	121323
310	121336
309	121351
307	121369
303	121382
299	121397
295	121410
293	121423
289	121438
318	121451
366	121464
363	121479
340	121492
318	121505
303	121520
292	121533
285	121546
282	121561
282	121574
284	121587
286	121602
291	121615
296	121628
302	121643
307	121656
310	121670
312	121683
312	121697
309	121711
308	121724
306	121738
305	121752
304	121765
303	121779
302	121793
298	121808
294	121822
291	121835
288	121849
290	121863
332	121876
369	121890
362	121904
341	121917
321	121931
305	121945
295	121958
288	121972
285	121986
283	121999
284	122013
287	122027
291	122040
296	122054
303	122067
307	122081
309	122095
311	122108
311	122122
310	122136
307	122149
306	122163
305	122177
305	122190
303	122204
299	122218
296	122231
293	122245
291	122259
289	122272
292	122286
339	122300
368	122313
353	122327
330	122341
312	122354
298	122368
288	122382
282	122397
282	122411
283	122425
284	122438
287	122451
294	122466
300	122479
307	122492
313	122507
315	122520
315	122533
314	122548
312	122561
311	122574
310	122589
309	122602
310	122615
308	122630
304	122643
299	122656
295	122671
292	122684
288	122697
306	122712
353	122725
353	122738
332	122753
313	122766
300	122779
290	122793
284	122807
282	122820
282	122834
283	122848
287	122861
291	122875
298	122889
304	122902
310	122916
314	122930
317	122943
317	122957
314	122971
311	122986
309	123000
307	123014
305	123027
304	123041
302	123055
299	123068
295	123082
292	123096
289	123109
293	123123
334	123137
362	123150
346	123164
324	123177
307	123191
295	123205
287	123218
283	123232
281	123246
283	123259
286	123273
291	123287
296	123300
303	123314
310	123328
315	123341
318	123355
318	123369
316	123382
312	123396
310	123410
308	123423
307	123437
307	123451
305	123464
300	123478
295	123491
292	123505
291	123518
288	123532
295	123546
342	123561
365	123575
345	123589
322	123602
304	123616
291	123630
283	123643
280	123657
278	123670
279	123684
280	123698
284	123711
289	123725
295	123739
301	123752
304	123766
307	123780
308	123794
307	123807
305	123821
303	123835
301	123848
301	123862
302	123876
302	123889
299	123902
295	123917
291	123930
289	123943
286	123958
296	123971
348	123984
371	123999
356	124012
333	124026
314	124040
300	124058
288	124071
284	124086
281	124099
282	124113
283	124127
286	124140
291	124155
297	124170
302	124183
304	124196
306	124211
306	124224
305	124237
303	124252
303	124265
302	124278
303	124293
302	124306
300	124320
297	124334
293	124347
290	124361
287	124375
283	124388
311	124402
361	124416
361	124429
338	124443
317	124456
301	124470
290	124484
282	124497
279	124511
278	124525
278	124538
281	124552
285	124566
293	124579
300	124593
306	124607
309	124620
311	124634
312	124648
311	124661
308	124675
307	124689
306	124702
307	124716
305	124730
302	124745
297	124759
291	124772
288	124786
285	124800
285	124813
321	124826
358	124840
344	124854
320	124867
303	124880
291	124895
284	124908
279	124921
278	124935
278	124949
281	124962
284	124976
289	124990
296	125003
303	125017
308	125030
313	125044
314	125058
312	125071
308	125084
306	125099
304	125112
303	125125
303	125139
302	125153
301	125166
296	125179
291	125194
288	125207
286	125220
285	125234
321	125248
360	125261
348	125275
325	125288
307	125302
295	125318
286	125331
283	125344
281	125358
282	125371
285	125385
289	125399
294	125412
300	125425
306	125440
310	125453
313	125466
314	125480
313	125494
310	125507
308	125520
307	125535
305	125548
305	125561
304	125575
303	125589
299	125602
293	125616
289	125629
286	125643
285	125657
321	125670
361	125683
351	125698
327	125711
310	125724
295	125737
286	125752
280	125765
278	125778
278	125793
280	125806
284	125819
289	125833
294	125847
300	125860
304	125874
306	125887
308	125903
307	125917
304	125930
302	125944
301	125958
301	125971
302	125985
304	125999
302	126012
299	126026
295	126040
293	126053
290	126067
288	126081
318	126094
363	126108
361	126121
339	126135
319	126149
304	126162
292	126176
285	126190
281	126203
280	126217
280	126230
282	126244
287	126258
294	126272
300	126285
304	126299
307	126312
310	126326
310	126340
308	126353
306	126367
305	126381
304	126394
305	126408
305	126422
305	126436
301	126449
298	126462
295	126476
294	126492
291	126505
317	126519
365	126533
367	126546
345	126560
322	126574
303	126587
291	126601
283	126615
279	126628
278	126642
278	126656
283	126669
288	126683
295	126697
302	126710
309	126725
314	126743
317	126756
318	126771
315	126784
311	126797
308	126812
307	126825
307	126838
305	126853
303	126866
297	126879
291	126894
287	126907
282	126920
286	126935
332	126948
362	126961
347	126974
326	126989
310	127002
299	127016
291	127030
286	127043
284	127057
285	127073
287	127086
291	127099
296	127114
302	127127
309	127140
314	127155
318	127168
318	127181
315	127196
311	127209
309	127222
306	127237
304	127250
303	127263
302	127278
298	127291
294	127304
291	127319
289	127332
286	127345
300	127360
348	127373
358	127386
337	127400
318	127414
304	127428
294	127441
289	127455
286	127469
286	127482
287	127496
289	127510
293	127523
297	127537
303	127551
309	127564
313	127578
316	127592
315	127605
312	127619
307	127633
305	127646
303	127662
305	127675
306	127689
304	127703
298	127716
294	127730
290	127744
287	127757
285	127771
316	127784
360	127798
351	127812
328	127825
309	127840
294	127853
285	127866
280	127881
278	127894
280	127907
282	127922
285	127935
288	127948
293	127963
299	127976
304	127989
308	128003
310	128017
309	128030
306	128045
305	128058
303	128071
303	128086
304	128099
305	128112
303	128126
300	128140
296	128153
292	128167
289	128181
290	128194
328	128208
366	128222
355	128235
329	128250
309	128265
295	128278
285	128291
281	128306
278	128319
278	128332
280	128347
283	128360
287	128373
293	128388
298	128401
304	128414
308	128429
311	128442
310	128455
308	128470
305	128483
304	128497
304	128510
305	128524
305	128537
302	128551
298	128565
295	128579
293	128592
290	128606
292	128619
336	128633
366	128647
353	128660
330	128674
310	128688
295	128702
287	128715
283	128729
281	128743
281	128756
282	128770
286	128784
292	128797
301	128811
307	128827
313	128840
316	128854
316	128868
315	128881
312	128894
310	128909
307	128922
307	128935
307	128950
305	128963
302	128976
297	128990
293	129004
289	129017
285	129031
309	129045
356	129058
352	129072
330	129086
311	129099
297	129113
288	129127
283	129140
282	129154
283	129168
285	129181
289	129196
293	129209
301	129222
308	129236
314	129250
318	129263
319	129277
318	129291
316	129304
312	129318
309	129332
307	129345
305	129359
302	129373
298	129386
295	129400
291	129417
288	129434
285	129447
312	129462
356	129475
349	129489
328	129503
312	129516
300	129529
292	129544
288	129557
287	129570
287	129584
287	129598
290	129611
294	129625
300	129639
306	129652
312	129666
317	129679
318	129693
317	129707
313	129720
309	129734
307	129747
305	129761
303	129774
302	129788
298	129802
294	129815
290	129829
287	129843
283	129856
297	129869
347	129884
359	129897
339	129910
319	129925
303	129938
291	129951
285	129965
281	129979
280	129992
281	130008
283	130021
286	130034
289	130048
295	130062
300	130075
305	130088
309	130102
309	130116
309	130129
307	130143
305	130157
303	130170
303	130184
303	130198
302	130211
298	130225
294	130238
290	130252
287	130266
286	130279
322	130292
361	130307
353	130320
331	130333
312	130348
297	130361
286	130374
279	130387
276	130402
275	130415
277	130428
279	130442
284	130456
291	130469
297	130483
302	130497
306	130510
308	130524
307	130537
306	130551
305	130565
303	130580
303	130593
303	130608
302	130621
298	130634
294	130649
292	130662
290	130675
287	130690
300	130703
350	130716
361	130731
341	130744
320	130758
302	130771
290	130785
283	130799
279	130812
278	130826
279	130840
282	130853
285	130867
291	130881
299	130894
305	130908
310	130922
313	130935
313	130949
312	130963
310	130976
310	130991
309	131004
308	131017
306	131032
303	131045
299	131058
295	131073
292	131086
286	131099
289	131113
335	131127
359	131140
342	131154
319	131170
303	131183
291	131197
284	131211
280	131224
279	131238
280	131252
284	131265
288	131279
295	131293
304	131306
311	131320
316	131334
319	131347
320	131361
317	131375
314	131389
311	131402
309	131416
308	131430
306	131443
301	131457
298	131471
293	131484
291	131497
288	131512
292	131525
336	131538
356	131553
339	131566
318	131579
303	131594
294	131607
287	131620
284	131635
284	131648
285	131661
288	131676
293	131689
299	131703
305	131717
310	131730
314	131744
318	131760
317	131773
313	131786
311	131801
309	131814
308	131827
307	131842
306	131855
302	131869
295	131883
291	131896
288	131910
284	131923
292	131937
339	131951
357	131964
338	131978
318	131992
303	132005
291	132019
285	132033
281	132046
279	132060
280	132074
282	132087
286	132102
293	132119
301	132133
305	132148
309	132161
312	132174
313	132189
312	132202
310	132215
307	132230
306	132243
305	132256
302	132271
296	132284
292	132297
289	132312
287	132325
284	132340
310	132355
357	132368
358	132382
337	132396
318	132409
303	132423
292	132436
286	132450
283	132464
282	132477
283	132491
286	132505
290	132518
295	132532
300	132546
305	132559
308	132573
310	132587
309	132600
306	132614
305	132628
302	132641
302	132656
303	132669
302	132682
299	132697
295	132710
292	132723
291	132738
288	132751
295	132764
345	132779
363	132792
347	132805
325	132819
307	132833
293	132846
284	132860
279	132874
278	132888
279	132901
280	132915
284	132930
290	132944
297	132958
303	132971
307	132985
309	132999
310	133013
309	133026
307	133040
306	133054
305	133067
305	133081
304	133095
303	133108
300	133122
296	133136
293	133149
290	133164
292	133177
334	133190
364	133204
353	133218
330	133231
309	133245
294	133259
285	133272
279	133286
277	133300
277	133313
279	133327
284	133341
290	133355
297	133368
303	133382
307	133396
311	133409
313	133423
313	133437
310	133450
307	133464
305	133478
305	133491
304	133505
302	133521
297	133534
294	133548
291	133562
288	133575
288	133588
329	133603
359	133616
346	133629
324	133644
307	133657
295	133670
287	133685
281	133698
280	133711
281	133726
284	133739
288	133752
295	133767
301	133780
308	133794
312	133808
316	133821
315	133835
313	133849
310	133862
307	133876
305	133890
305	133903
305	133917
302	133931
297	133944
294	133958
291	133971
287	133985
285	133999
318	134012
357	134027
345	134040
322	134053
305	134068
294	134081
286	134096
282	134110
282	134124
283	134137
286	134151
289	134165
295	134178
301	134192
308	134205
313	134219
316	134233
317	134246
315	134259
311	134274
308	134287
306	134300
305	134313
304	134328
302	134341
296	134354
292	134369
290	134382
288	134395
284	134409
310	134423
355	134436
353	134450
331	134463
314	134477
301	134491
292	134504
287	134518
284	134532
283	134545
284	134558
287	134573
292	134586
298	134599
303	134614
308	134627
312	134640
314	134653
313	134668
310	134683
307	134695
304	134710
304	134723
303	134736
302	134751
297	134764
294	134778
290	134792
288	134809
284	134823
312	134837
358	134851
353	134864
333	134878
315	134891
300	134905
290	134919
284	134932
283	134945
283	134960
284	134973
287	134986
290	135001
294	135014
299	135027
304	135041
307	135055
310	135068
308	135081
306	135096
304	135109
303	135122
302	135136
302	135150
302	135163
298	135177
294	135190
293	135204
292	135218
289	135231
297	135244
346	135259
365	135274
349	135287
328	135302
311	135315
299	135328
292	135343
287	135356
285	135369
285	135384
286	135397
289	135410
293	135425
297	135438
303	135451
307	135465
310	135479
311	135492
309	135506
307	135520
305	135533
304	135547
305	135561
305	135574
303	135588
300	135602
297	135615
295	135629
292	135643
287	135656
313	135670
358	135684
359	135697
338	135711
317	135725
301	135738
291	135752
285	135766
281	135779
279	135793
280	135806
283	135820
288	135834
295	135849
304	135863
309	135877
312	135890
313	135904
312	135917
310	135931
308	135945
305	135959
305	135972
305	135986
304	136000
302	136013
298	136027
294	136041
292	136054
288	136068
294	136081
342	136095
360	136109
342	136123
319	136136
301	136150
288	136164
281	136177
278	136190
278	136205
280	136218
283	136231
287	136246
294	136259
302	136272
308	136287
312	136300
317	136313
318	136328
317	136341
314	136354
310	136369
308	136382
305	136395
305	136410
302	136423
296	136438
292	136452
290	136466
288	136479
291	136493
332	136507
362	136520
348	136534
327	136548
311	136561
300	136574
292	136589
290	136602
290	136615
290	136630
292	136643
295	136656
298	136671
303	136684
309	136697
313	136712
316	136725
317	136738
315	136753
312	136766
310	136779
308	136794
307	136807
307	136820
304	136835
298	136848
293	136861
289	136876
288	136889
283	136902
312	136916
355	136930
346	136943
325	136957
308	136971
294	136984
286	136998
281	137012
278	137027
280	137040
284	137055
287	137068
293	137081
298	137096
304	137109
309	137122
313	137137
316	137150
315	137163
310	137178
305	137191
303	137204
302	137219
302	137232
302	137245
301	137260
296	137273
293	137286
292	137300
287	137314
305	137327
352	137341
357	137355
338	137368
317	137382
302	137396
291	137409
285	137423
281	137437
279	137450
280	137464
283	137479
288	137496
296	137510
303	137524
308	137538
311	137551
311	137565
309	137579
305	137592
302	137608
300	137621
299	137635
299	137649
297	137662
293	137676
290	137690
288	137703
287	137717
284	137731
315	137744
362	137758
360	137772
339	137785
319	137799
304	137812
293	137826
287	137840
284	137853
282	137867
283	137881
285	137894
288	137908
293	137922
300	137935
304	137949
308	137963
311	137976
310	137990
308	138004
307	138017
305	138031
305	138045
306	138058
304	138072
302	138086
299	138099
295	138113
293	138127
288	138140
302	138153
352	138168
364	138181
344	138196
323	138210
305	138224
292	138237
285	138251
281	138265
279	138278
280	138292
282	138306
286	138319
292	138333
298	138347
303	138360
308	138374
311	138388
310	138401
308	138415
306	138429
304	138442
304	138456
305	138470
306	138483
303	138497
298	138511
294	138524
291	138537
288	138552
293	138565
339	138578
359	138593
344	138606
322	138619
305	138634
292	138647
284	138660
281	138675
280	138688
282	138701
285	138716
290	138729
296	138742
304	138756
311	138770
316	138785
320	138799
319	138812
315	138826
310	138840
308	138853
306	138866
307	138881
306	138894
304	138907
298	138920
291	138935
287	138948
281	138961
288	138975
336	138989
352	139002
334	139016
315	139029
300	139043
290	139057
285	139070
281	139083
280	139098
282	139111
285	139124
289	139139
295	139152
303	139165
310	139179
314	139193
316	139206
315	139219
313	139233
308	139247
304	139260
302	139274
301	139287
299	139301
296	139315
291	139328
288	139341
284	139357
280	139371
290	139384
334	139398
350	139411
331	139424
312	139439
298	139452
288	139465
283	139479
280	139493
278	139506
279	139520
282	139533
286	139547
292	139560
300	139574
305	139587
311	139601
313	139615
313	139628
311	139641
307	139656
304	139669
303	139682
302	139696
301	139710
297	139723
292	139737
287	139750
286	139764
282	139778
288	139791
334	139804
355	139819
337	139832
315	139845
299	139858
288	139873
280	139886
276	139899
275	139913
277	139927
280	139942
283	139956
287	139969
294	139983
300	139997
305	140010
310	140024
310	140038
309	140051
306	140065
305	140079
304	140092
304	140106
303	140120
299	140134
295	140147
292	140162
290	140179
286	140193
314	140207
359	140221
355	140234
333	140248
313	140262
300	140275
288	140289
283	140303
279	140316
278	140329
280	140344
283	140357
288	140370
296	140385
302	140398
305	140411
308	140426
310	140439
310	140452
308	140466
306	140480
305	140493
306	140508
307	140521
306	140536
304	140550
300	140564
296	140577
294	140591
289	140605
316	140618
360	140632
360	140646
338	140659
317	140673
300	140687
289	140700
281	140713
277	140728
279	140741
282	140754
285	140769
291	140782
297	140795
303	140810
308	140823
312	140836
313	140851
313	140864
313	140877
312	140892
311	140905
313	140918
312	140933
310	140946
307	140959
302	140974
297	140987
293	141000
288	141014
308	141028
355	141041
360	141054
340	141069
320	141082
304	141095
292	141112
285	141125
282	141138
282	141153
283	141166
286	141179
290	141194
298	141207
306	141220
312	141234
315	141248
318	141261
317	141275
314	141289
312	141302
310	141316
309	141330
308	141343
306	141357
302	141371
298	141384
293	141398
289	141412
284	141425
313	141438
358	141453
357	141466
336	141479
317	141494
303	141507
293	141520
288	141535
285	141548
286	141561
289	141575
294	141589
299	141602
306	141616
313	141630
317	141643
320	141657
322	141671
320	141684
315	141700
311	141713
309	141727
308	141741
307	141754
304	141768
299	141782
294	141795
291	141809
288	141822
290	141836
333	141850
359	141863
340	141877
318	141891
303	141904
292	141918
286	141932
282	141945
280	141959
282	141973
284	141986
291	142000
296	142014
303	142027
310	142041
314	142054
316	142068
316	142082
314	142095
311	142109
309	142123
307	142136
307	142150
305	142163
301	142177
298	142191
295	142204
291	142218
287	142232
300	142245
348	142259
356	142273
332	142288
313	142302
298	142315
289	142329
284	142343
281	142356
281	142370
282	142384
285	142397
289	142411
295	142425
301	142438
307	142451
311	142466
312	142479
312	142492
310	142507
309	142520
307	142533
306	142547
306	142561
305	142574
301	142588
296	142602
293	142615
290	142629
286	142643
312	142656
357	142670
356	142684
334	142697
314	142711
298	142725
287	142738
280	142752
280	142766
281	142779
283	142793
285	142807
289	142820
296	142834
301	142849
305	142868
311	142882
312	142896
311	142910
310	142923
308	142937
308	142950
308	142964
306	142978
302	142991
299	143005
295	143019
292	143032
287	143046
292	143059
340	143073
358	143087
341	143100
319	143114
303	143128
291	143141
283	143155
280	143169
279	143182
280	143196
282	143210
284	143223
289	143237
295	143251
301	143264
306	143278
310	143292
312	143305
311	143319
310	143333
307	143346
305	143360
306	143374
304	143387
301	143400
296	143415
290	143428
287	143441
281	143458
287	143471
334	143484
357	143498
343	143512
322	143525
305	143539
293	143552
285	143566
281	143580
280	143593
282	143607
285	143621
290	143634
296	143647
304	143662
310	143675
313	143688
315	143702
314	143716
313	143729
312	143742
310	143756
305	143770
299	143783
296	143797
292	143810
288	143824
286	143838
286	143851
285	143864
287	143879
329	143892
361	143905
348	143920
325	143933
307	143946
294	143960
287	143974
283	143987
281	144001
282	144014
285	144028
289	144044
294	144056
301	144070
307	144083
311	144097
315	144110
315	144124
312	144138
308	144151
306	144164
305	144179
306	144192
306	144205
303	144219
300	144233
296	144246
291	144260
288	144273
292	144287
333	144301
360	144314
344	144327
324	144342
308	144355
297	144368
291	144381
288	144396
286	144409
286	144422
288	144436
292	144450
298	144463
304	144477
313	144491
315	144504
317	144518
317	144531
316	144545
313	144559
311	144572
311	144585
311	144600
310	144615
305	144628
299	144642
295	144656
292	144669
287	144683
298	144697
344	144710
357	144723
337	144738
317	144751
300	144764
290	144779
283	144792
280	144805
279	144819
280	144833
283	144846
289	144860
294	144874
301	144887
306	144901
310	144915
312	144928
312	144942
309	144956
306	144969
304	144983
302	144997
302	145010
300	145024
300	145038
300	145051
296	145064
293	145079
288	145092
297	145105
344	145120
361	145133
342	145146
324	145161
304	145174
291	145187
279	145203
274	145217
273	145230
275	145244
278	145258
282	145271
289	145285
295	145299
298	145312
303	145326
305	145340
305	145353
302	145367
302	145381
302	145394
304	145408
304	145422
304	145435
300	145448
295	145463
292	145476
292	145489
289	145504
292	145517
337	145531
359	145550
332	145563
311	145577
295	145591
282	145604
276	145618
275	145632
274	145645
276	145658
280	145673
285	145686
292	145700
299	145714
304	145727
309	145741
313	145755
314	145768
314	145782
312	145798
308	145811
307	145824
307	145839
305	145852
304	145865
298	145880
292	145893
290	145907
284	145921
294	145934
342	145948
356	145961
336	145975
315	145989
299	146002
287	146016
281	146030
277	146043
277	146057
280	146071
282	146084
287	146098
293	146112
300	146125
306	146139
311	146153
312	146166
313	146180
312	146194
308	146207
303	146221
302	146235
301	146248
301	146263
298	146276
293	146289
288	146304
284	146317
280	146330
288	146344
335	146358
355	146373
336	146386
316	146401
302	146414
293	146427
288	146442
285	146455
286	146468
288	146483
290	146496
296	146509
303	146524
309	146537
315	146550
319	146565
320	146578
320	146591
317	146606
314	146619
310	146632
307	146647
307	146660
306	146673
303	146688
299	146701
296	146714
294	146728
289	146742
298	146755
342	146769
357	146783
336	146796
316	146810
300	146824
291	146837
285	146851
283	146865
284	146878
285	146892
287	146906
291	146919
298	146933
304	146947
310	146962
314	146975
316	146990
314	147003
312	147016
307	147031
305	147044
305	147057
304	147072
304	147085
302	147098
298	147112
293	147126
291	147139
288	147153
294	147167
338	147180
359	147194
345	147208
325	147221
308	147235
298	147249
289	147262
285	147276
283	147290
285	147303
288	147317
293	147331
297	147344
303	147358
308	147372
313	147385
316	147399
315	147412
313	147426
310	147440
306	147453
305	147467
304	147481
304	147494
302	147508
299	147522
294	147535
291	147551
288	147564
287	147578
325	147592
361	147606
348	147619
327	147633
310	147647
298	147660
291	147674
286	147688
282	147701
282	147715
285	147729
291	147742
294	147756
300	147769
305	147783
311	147796
311	147811
313	147824
310	147837
305	147852
304	147865
301	147878
300	147893
303	147906
298	147919
298	147934
290	147947
288	147960
288	147975
283	147988
305	148001
351	148016
354	148029
335	148042
316	148057
301	148070
287	148083
284	148098
282	148111
283	148126
283	148140
289	148154
292	148167
301	148180
308	148195
312	148208
312	148222
311	148240
310	148254
308	148268
304	148282
300	148295
299	148308
298	148322
295	148336
291	148349
288	148363
285	148376
283	148390
281	148404
320	148417
353	148430
337	148445
314	148458
297	148471
288	148486
281	148499
278	148512
279	148526
280	148540
285	148553
290	148567
296	148580
302	148594
309	148608
314	148621
316	148634
315	148648
312	148662
308	148675
304	148689
302	148703
300	148718
300	148731
298	148745
295	148758
292	148771
290	148786
287	148799
287	148812
321	148826
353	148840
335	148853
314	148867
300	148880
291	148894
286	148908
284	148921
284	148935
286	148948
289	148962
294	148975
300	148989
307	149003
313	149016
317	149029
319	149044
320	149057
317	149070
313	149085
309	149098
305	149111
303	149125
302	149139
299	149152
295	149166
291	149179
289	149193
287	149207
287	149220
322	149233
356	149248
340	149261
318	149274
303	149287
292	149304
287	149317
284	149330
283	149344
285	149358
288	149371
294	149385
300	149399
308	149412
313	149426
319	149440
320	149453
319	149467
315	149481
312	149494
309	149508
306	149522
305	149535
303	149550
300	149563
295	149576
292	149591
289	149604
286	149617
292	149632
337	149645
357	149658
336	149671
314	149686
300	149699
290	149713
283	149727
282	149740
282	149753
284	149768
287	149781
294	149794
301	149809
307	149822
312	149835
315	149850
315	149863
314	149878
310	149893
308	149906
304	149919
303	149934
302	149947
299	149960
296	149975
293	149988
290	150001
288	150016
286	150029
300	150042
351	150056
359	150070
336	150083
316	150097
302	150111
291	150124
286	150138
283	150152
283	150165
284	150179
289	150193
294	150206
302	150220
309	150234
313	150247
315	150261
314	150275
311	150288
306	150302
303	150316
301	150329
300	150343
299	150356
298	150370
295	150384
291	150397
289	150411
288	150425
286	150438
297	150452
355	150467
363	150481
338	150495
315	150508
300	150522
288	150536
283	150549
280	150563
280	150577
282	150590
286	150604
292	150618
300	150631
306	150645
311	150659
314	150672
312	150686
310	150700
306	150713
304	150727
302	150740
301	150754
300	150768
300	150781
297	150795
293	150809
290	150822
289	150836
286	150850
295	150863
348	150877
370	150891
347	150905
322	150923
298	150937
287	150950
280	150965
278	150978
278	150991
280	151006
284	151019
291	151032
300	151047
308	151062
313	151075
315	151089
313	151103
311	151116
308	151130
305	151144
302	151157
302	151171
301	151185
298	151198
294	151212
291	151226
288	151239
286	151254
285	151267
324	151280
365	151294
350	151308
325	151321
306	151335
294	151349
285	151362
282	151376
281	151390
282	151403
286	151417
292	151431
299	151444
308	151458
315	151472
319	151485
320	151499
318	151513
315	151526
311	151540
308	151554
305	151567
303	151581
302	151595
298	151608
294	151622
290	151638
287	151651
284	151664
292	151678
341	151692
359	151705
335	151719
314	151733
299	151746
291	151760
286	151774
283	151787
284	151801
286	151815
289	151828
295	151842
301	151856
309	151869
316	151883
319	151897
319	151910
317	151924
312	151938
308	151951
305	151965
304	151979
303	151992
302	152006
298	152019
293	152033
290	152047
290	152060
287	152074
305	152088
352	152101
352	152115
329	152129
310	152142
297	152156
290	152170
285	152183
284	152197
284	152211
287	152226
291	152240
297	152254
305	152267
311	152281
315	152295
317	152308
317	152322
314	152336
310	152349
307	152363
304	152377
303	152390
302	152403
301	152418
297	152431
293	152444
290	152458
288	152472
287	152485
319	152499
359	152513
346	152526
322	152541
305	152554
293	152567
285	152581
281	152595
280	152608
280	152622
282	152636
288	152649
295	152664
303	152677
310	152690
314	152704
316	152718
315	152731
314	152744
310	152759
304	152772
302	152785
304	152800
305	152815
302	152828
298	152842
293	152856
292	152869
290	152883
291	152897
333	152910
368	152924
350	152937
324	152951
305	152965
291	152978
283	152991
278	153006
277	153019
278	153032
282	153046
289	153060
295	153073
304	153086
311	153100
316	153114
317	153127
316	153141
312	153154
308	153168
303	153182
302	153195
302	153209
301	153223
299	153236
296	153249
292	153264
289	153277
287	153290
285	153304
320	153318
370	153331
363	153345
335	153358
314	153372
299	153393
285	153405
281	153419
281	153433
285	153446
289	153460
289	153474
301	153487
310	153500
315	153515
318	153528
317	153541
314	153555
311	153569
307	153583
304	153602
302	153615
300	153629
297	153643
293	153656
290	153669
287	153683
284	153697
280	153710
300	153723
356	153738
360	153751
334	153764
311	153779
293	153792
284	153805
278	153819
275	153833
275	153846
277	153860
280	153874
287	153887
295	153901
303	153915
308	153928
309	153942
309	153955
306	153969
303	153985
301	153998
298	154012
295	154025
294	154039
293	154053
290	154066
286	154080
284	154094
282	154107
281	154121
314	154135
358	154148
345	154162
320	154176
302	154189
289	154203
283	154217
279	154230
278	154245
279	154258
281	154271
287	154286
293	154299
301	154312
309	154327
314	154340
316	154353
315	154368
312	154381
309	154395
307	154408
306	154422
305	154436
303	154449
300	154463
297	154477
293	154490
290	154504
288	154518
292	154531
333	154545
359	154559
335	154574
314	154588
300	154602
290	154615
287	154629
286	154643
287	154656
289	154670
292	154684
297	154697
306	154711
313	154725
319	154738
322	154752
321	154766
319	154779
317	154792
314	154807
311	154820
308	154834
307	154848
304	154861
301	154875
297	154889
293	154902
291	154916
288	154930
309	154943
355	154957
351	154971
326	154984
307	154998
296	155012
289	155025
286	155039
283	155053
284	155066
288	155080
293	155094
300	155107
308	155121
314	155134
318	155150
319	155164
318	155177
314	155191
312	155205
310	155218
308	155232
306	155246
304	155259
300	155274
296	155287
292	155300
290	155315
289	155328
291	155341
334	155356
362	155369
343	155382
319	155397
303	155410
292	155423
285	155438
282	155451
281	155464
282	155479
286	155492
292	155505
299	155520
307	155533
312	155547
316	155560
