295	6
295	8
295	10
295	12
295	14
295	16
295	18
295	20
294	22
294	24
294	26
293	28
293	30
292	32
291	34
291	36
290	38
290	40
290	43
290	45
290	47
290	49
290	51
289	53
289	55
289	57
288	59
288	61
288	63
288	65
288	67
288	69
287	71
287	73
287	75
286	77
285	79
285	81
285	83
285	86
286	88
288	90
292	92
296	94
302	96
309	98
317	100
326	102
335	104
344	106
352	108
359	110
365	112
369	114
372	116
373	118
372	120
371	122
369	124
367	126
366	128
363	130
360	132
356	134
353	136
349	138
346	140
343	142
339	144
337	146
333	148
330	150
327	152
324	154
320	156
318	158
315	160
312	162
309	164
307	166
305	168
303	171
301	173
298	175
296	177
295	179
293	181
292	183
290	185
289	187
287	189
286	191
285	193
284	195
283	197
282	199
281	201
281	203
280	205
279	207
279	209
278	211
278	214
278	216
277	218
277	220
277	222
277	224
277	226
277	228
277	230
278	232
278	234
278	236
278	238
278	240
278	242
279	244
279	246
280	248
281	250
281	252
282	254
283	256
283	258
284	260
284	262
285	264
286	266
287	268
288	270
289	272
290	274
291	276
292	278
293	280
294	282
295	284
297	286
298	288
299	290
300	292
302	294
303	296
305	299
306	301
307	303
308	305
309	307
311	309
312	311
313	313
315	315
316	317
317	319
318	321
318	323
319	325
320	327
320	329
321	331
321	333
322	335
322	337
323	339
323	342
323	344
323	346
322	348
322	350
322	352
322	354
321	356
321	358
320	360
319	362
318	364
317	366
317	368
316	370
315	372
314	374
314	376
312	378
312	380
310	382
310	384
309	386
308	388
307	390
306	392
306	394
305	396
304	398
303	400
302	402
301	404
301	406
300	408
300	410
299	412
298	414
298	416
297	418
296	420
296	422
295	424
294	427
294	429
293	431
293	433
293	435
292	437
292	439
292	441
291	443
291	445
290	447
290	449
289	451
289	453
289	455
289	457
288	459
288	461
288	463
288	465
288	467
288	470
288	472
287	474
287	476
287	478
287	480
287	482
287	484
288	486
288	488
288	490
288	492
288	494
288	496
289	498
289	500
289	502
289	504
290	506
290	508
290	510
291	512
291	514
292	516
293	518
293	520
294	522
294	524
295	526
295	528
295	530
295	532
295	534
295	536
295	538
295	540
295	542
295	544
294	546
294	548
294	550
294	552
293	555
293	557
293	559
293	561
292	563
292	565
292	567
291	569
291	571
291	573
290	575
290	577
290	579
290	581
289	583
289	585
289	587
289	589
289	591
289	593
289	595
290	598
289	600
289	602
289	604
289	606
288	608
288	610
287	612
287	614
286	616
286	618
287	620
288	622
290	624
294	626
299	628
305	630
312	632
321	634
330	636
340	638
344	640
353	642
360	644
367	646
371	648
375	650
377	652
376	654
375	656
374	658
371	660
368	662
365	664
361	666
358	668
354	670
351	672
347	674
344	676
341	678
337	680
333	683
330	685
327	687
324	689
321	691
318	693
315	695
313	697
310	699
307	701
305	703
303	705
301	707
298	709
297	711
295	713
293	715
292	717
290	719
289	721
288	723
287	726
286	728
284	730
283	732
282	734
281	736
281	738
280	740
280	742
279	744
278	746
278	748
278	750
278	752
277	754
277	756
277	758
277	760
277	762
277	764
277	766
277	768
277	770
277	772
278	774
278	776
278	778
279	780
279	782
280	784
280	786
281	788
281	790
282	792
283	794
283	796
284	798
285	800
286	802
287	804
287	806
288	808
289	811
290	813
291	815
292	817
294	819
295	821
296	823
298	825
299	827
300	829
302	831
303	833
305	835
306	837
308	839
309	841
311	843
312	845
313	847
314	849
315	851
316	854
317	856
318	858
319	860
320	862
320	864
321	866
322	868
322	870
322	872
323	874
322	876
323	878
322	880
322	882
321	884
321	886
321	888
320	890
320	892
319	894
319	896
318	898
318	900
317	902
316	904
315	906
315	908
314	910
313	912
312	914
311	916
310	918
309	920
309	922
308	924
307	926
306	928
306	930
305	932
304	934
303	936
302	939
301	941
301	943
300	945
299	947
299	949
298	951
297	953
297	955
296	957
295	959
295	961
294	963
294	965
293	967
293	969
292	971
292	973
292	975
291	977
291	979
290	982
290	984
290	986
290	988
289	990
289	992
289	994
289	996
288	998
288	1000
288	1002
287	1004
287	1006
287	1008
287	1010
288	1012
288	1014
288	1016
288	1018
289	1020
289	1022
289	1024
289	1026
289	1028
289	1030
289	1032
290	1034
290	1036
290	1038
291	1040
291	1042
291	1044
292	1046
292	1048
293	1050
293	1052
293	1054
293	1056
294	1058
294	1060
294	1062
295	1064
295	1067
296	1069
296	1071
296	1073
295	1075
295	1077
295	1079
294	1081
294	1083
294	1085
293	1087
293	1089
293	1091
293	1093
292	1095
292	1097
292	1099
292	1101
292	1103
291	1105
291	1107
291	1110
291	1112
291	1114
291	1116
291	1118
290	1120
290	1122
290	1124
290	1126
290	1128
290	1130
290	1132
290	1134
290	1136
290	1138
290	1140
289	1142
288	1144
288	1146
287	1148
287	1150
287	1152
287	1154
289	1156
291	1158
295	1160
300	1162
306	1164
314	1166
323	1168
332	1170
342	1172
351	1174
359	1176
365	1178
371	1180
374	1182
377	1184
377	1186
376	1188
375	1190
373	1192
370	1195
367	1197
364	1199
360	1201
357	1203
353	1205
349	1207
346	1209
342	1211
339	1213
336	1215
332	1217
329	1219
326	1221
323	1223
320	1225
317	1227
314	1229
311	1231
309	1233
307	1235
305	1238
302	1240
301	1242
299	1244
297	1246
295	1248
293	1250
292	1252
290	1254
289	1256
288	1258
286	1260
285	1262
284	1264
283	1266
282	1268
281	1270
281	1272
280	1274
280	1276
279	1278
279	1280
278	1282
278	1284
278	1286
278	1288
278	1290
278	1292
278	1294
278	1296
278	1298
278	1300
278	1302
278	1304
278	1306
278	1308
279	1310
279	1312
279	1314
279	1316
280	1318
281	1320
281	1323
281	1325
283	1327
283	1329
285	1331
286	1333
287	1335
287	1337
288	1339
289	1341
290	1343
291	1345
292	1347
293	1349
294	1351
296	1353
297	1355
299	1357
300	1359
301	1361
303	1363
304	1366
306	1368
307	1370
308	1372
310	1374
311	1376
312	1378
314	1380
314	1382
315	1384
316	1386
317	1388
318	1390
319	1392
320	1394
320	1396
321	1398
322	1400
322	1402
322	1404
322	1406
322	1408
323	1410
322	1412
322	1414
322	1416
322	1418
322	1420
321	1422
321	1424
320	1426
320	1428
319	1430
318	1432
318	1434
317	1436
316	1438
315	1440
314	1442
313	1444
313	1446
312	1448
311	1451
310	1453
309	1455
308	1457
307	1459
306	1461
305	1463
304	1465
303	1467
302	1469
302	1471
301	1473
300	1475
299	1477
299	1479
298	1481
297	1483
297	1485
296	1487
295	1489
295	1491
294	1494
294	1496
293	1498
293	1500
292	1502
292	1504
291	1506
291	1508
291	1510
290	1512
290	1514
290	1516
290	1518
289	1520
289	1522
288	1524
288	1526
288	1528
288	1530
288	1532
288	1534
288	1536
288	1538
288	1540
288	1542
287	1544
287	1546
288	1548
287	1550
287	1552
287	1554
288	1556
288	1558
288	1560
288	1562
288	1564
288	1566
288	1568
289	1570
289	1572
290	1574
290	1576
291	1579
291	1581
291	1583
292	1585
292	1587
292	1589
292	1591
293	1593
293	1595
293	1597
294	1599
294	1601
294	1603
294	1605
294	1607
294	1609
294	1611
294	1613
293	1615
293	1617
293	1619
293	1622
293	1624
292	1626
292	1628
292	1630
291	1632
291	1634
291	1636
291	1638
291	1640
291	1642
290	1644
290	1646
290	1648
290	1650
290	1652
289	1654
289	1656
289	1658
289	1660
289	1662
289	1664
289	1666
288	1668
288	1670
288	1672
287	1674
287	1676
286	1678
285	1680
285	1682
285	1684
286	1686
289	1688
292	1690
297	1692
303	1694
310	1696
319	1698
329	1700
339	1702
348	1704
356	1707
363	1709
368	1711
372	1713
375	1715
376	1717
375	1719
374	1721
373	1723
371	1725
367	1727
364	1729
361	1731
357	1733
354	1735
350	1737
347	1739
344	1741
340	1743
336	1745
333	1747
330	1750
326	1752
323	1754
320	1756
317	1758
314	1760
312	1762
309	1764
307	1766
304	1768
302	1770
300	1772
298	1774
297	1776
295	1778
293	1780
292	1782
290	1784
288	1786
287	1788
286	1790
285	1792
284	1794
283	1796
282	1798
282	1800
281	1802
280	1804
279	1806
279	1808
279	1810
278	1812
278	1814
277	1816
277	1818
277	1820
277	1822
276	1824
277	1826
277	1828
277	1830
277	1832
277	1835
277	1837
277	1839
277	1841
278	1843
279	1845
279	1847
280	1849
281	1851
281	1853
281	1855
282	1857
282	1859
283	1861
284	1863
284	1865
285	1867
286	1869
287	1871
288	1873
290	1875
291	1878
292	1880
293	1882
295	1884
296	1886
298	1888
299	1890
301	1892
302	1894
304	1896
306	1898
307	1900
308	1902
310	1904
311	1906
313	1908
314	1910
315	1912
317	1914
318	1916
319	1918
319	1920
320	1922
321	1924
321	1926
323	1928
323	1930
323	1932
323	1934
324	1936
324	1938
324	1940
324	1942
324	1944
323	1946
323	1948
322	1950
322	1952
321	1954
320	1956
320	1958
319	1960
318	1963
318	1965
317	1967
316	1969
315	1971
314	1973
313	1975
312	1977
311	1979
310	1981
310	1983
309	1985
308	1987
307	1989
306	1991
305	1993
304	1995
304	1997
303	1999
302	2001
301	2003
300	2006
299	2008
299	2010
298	2012
298	2014
297	2016
297	2018
296	2020
296	2022
295	2024
294	2026
294	2028
293	2030
293	2032
292	2034
292	2036
291	2038
291	2040
290	2042
289	2044
289	2046
289	2048
288	2050
288	2052
288	2054
288	2056
287	2058
287	2060
287	2062
287	2064
287	2066
287	2068
287	2070
287	2072
287	2074
287	2076
287	2078
287	2080
287	2082
287	2084
288	2086
288	2088
288	2091
288	2093
288	2095
289	2097
289	2099
289	2101
290	2103
290	2105
290	2107
291	2109
291	2111
291	2113
292	2115
292	2117
292	2119
293	2121
293	2123
293	2125
293	2127
293	2129
293	2131
293	2134
293	2136
293	2138
293	2140
293	2142
292	2144
292	2146
292	2148
292	2150
292	2152
291	2154
291	2156
291	2158
291	2160
290	2162
290	2164
290	2166
290	2168
290	2170
290	2172
290	2174
289	2176
289	2178
289	2180
289	2182
289	2184
289	2186
288	2188
288	2190
289	2192
289	2194
288	2196
288	2198
288	2200
287	2202
287	2204
286	2206
285	2208
285	2210
285	2212
287	2214
290	2216
293	2219
299	2221
306	2223
314	2225
323	2227
332	2229
342	2231
350	2233
357	2235
363	2237
367	2239
370	2241
371	2243
370	2245
368	2247
367	2249
365	2251
362	2253
359	2255
356	2257
352	2259
348	2262
345	2264
341	2266
338	2268
335	2270
332	2272
328	2274
325	2276
323	2278
320	2280
317	2282
314	2284
312	2286
309	2288
307	2290
304	2292
303	2294
301	2296
299	2298
297	2300
296	2302
295	2304
293	2306
292	2308
290	2310
289	2312
288	2314
287	2316
286	2318
285	2320
284	2322
283	2324
283	2326
282	2328
281	2330
281	2332
281	2334
281	2336
280	2338
280	2340
280	2342
279	2344
279	2347
279	2349
279	2351
279	2353
279	2355
280	2357
280	2359
280	2361
280	2363
281	2365
281	2367
281	2369
282	2371
282	2373
283	2375
283	2377
284	2379
284	2381
284	2383
286	2385
286	2387
287	2390
288	2392
289	2394
289	2396
291	2398
292	2400
293	2402
294	2404
295	2406
297	2408
298	2410
299	2412
301	2414
303	2416
304	2418
306	2420
307	2422
309	2424
310	2426
312	2428
313	2430
314	2432
316	2434
317	2436
318	2438
320	2440
321	2442
322	2444
323	2446
324	2448
324	2450
325	2452
326	2454
326	2456
327	2458
327	2460
327	2462
327	2464
327	2466
327	2468
327	2470
327	2472
327	2475
326	2477
326	2479
325	2481
324	2483
323	2485
323	2487
322	2489
321	2491
320	2493
319	2495
318	2497
318	2499
316	2501
315	2503
314	2505
313	2507
312	2509
310	2511
309	2513
308	2515
308	2518
307	2520
306	2522
305	2524
304	2526
303	2528
302	2530
301	2532
300	2534
300	2536
299	2538
298	2540
297	2542
296	2544
296	2546
295	2548
294	2550
293	2552
293	2554
292	2556
292	2558
291	2560
291	2562
290	2564
290	2566
289	2568
290	2570
289	2572
289	2574
288	2576
288	2578
288	2580
287	2582
287	2584
287	2586
287	2588
287	2590
287	2592
287	2594
287	2596
287	2598
287	2600
287	2603
287	2605
287	2607
287	2609
287	2611
288	2613
288	2615
288	2617
288	2619
288	2621
288	2623
288	2625
289	2627
289	2629
289	2631
290	2633
290	2635
290	2637
291	2639
291	2641
291	2643
291	2646
292	2648
292	2650
291	2652
292	2654
292	2656
292	2658
292	2660
292	2662
291	2664
292	2666
291	2668
291	2670
291	2672
291	2674
290	2676
289	2678
289	2680
289	2682
289	2684
288	2686
288	2688
288	2690
289	2692
288	2694
288	2696
288	2698
288	2700
288	2702
288	2704
288	2706
288	2708
288	2710
288	2712
288	2714
288	2716
287	2718
287	2720
287	2722
286	2724
285	2726
285	2728
284	2731
284	2733
285	2735
287	2737
290	2739
294	2741
300	2743
306	2745
314	2747
322	2749
332	2751
341	2753
348	2755
355	2757
361	2759
365	2761
367	2763
368	2765
367	2767
365	2769
363	2771
360	2774
358	2776
354	2778
351	2780
347	2782
344	2784
340	2786
337	2788
334	2790
331	2792
328	2794
325	2796
322	2798
319	2800
317	2802
314	2804
312	2806
309	2808
307	2810
305	2812
303	2814
302	2816
300	2818
298	2820
296	2822
294	2824
293	2826
291	2828
290	2830
289	2832
288	2834
286	2836
286	2838
284	2840
284	2842
283	2844
283	2846
282	2848
281	2850
280	2852
280	2854
280	2856
279	2859
279	2861
279	2863
278	2865
279	2867
278	2869
279	2871
279	2873
279	2875
279	2877
280	2879
280	2881
280	2883
280	2885
280	2887
281	2889
281	2891
282	2893
282	2895
283	2897
283	2899
284	2902
284	2904
285	2906
286	2908
286	2910
287	2912
288	2914
289	2916
290	2918
291	2920
291	2922
293	2924
294	2926
294	2928
295	2930
297	2932
298	2934
300	2936
301	2938
303	2940
304	2942
305	2944
306	2946
308	2948
309	2950
311	2952
312	2954
314	2956
316	2958
317	2960
318	2962
319	2964
320	2966
321	2968
322	2970
323	2972
323	2974
324	2976
325	2978
325	2980
325	2982
325	2984
325	2987
325	2989
325	2991
325	2993
325	2995
324	2997
324	2999
323	3001
323	3003
322	3005
321	3007
321	3009
320	3011
319	3013
318	3015
317	3017
316	3019
315	3021
315	3023
313	3025
312	3027
312	3030
311	3032
310	3034
309	3036
308	3038
308	3040
307	3042
306	3044
305	3046
304	3048
303	3050
302	3052
302	3054
301	3056
300	3058
299	3060
299	3062
298	3064
298	3066
297	3068
296	3070
296	3072
295	3074
295	3076
294	3078
294	3080
293	3082
292	3084
292	3086
291	3088
291	3090
291	3092
290	3094
290	3096
289	3098
289	3100
288	3102
288	3104
288	3106
288	3108
288	3110
288	3112
288	3115
288	3117
288	3119
288	3121
288	3123
288	3125
289	3127
289	3129
289	3131
289	3133
289	3135
289	3137
289	3139
289	3141
289	3143
289	3145
289	3147
290	3149
290	3151
291	3153
291	3155
292	3158
292	3160
292	3162
293	3164
293	3166
293	3168
293	3170
293	3172
293	3174
293	3176
293	3178
293	3180
293	3182
293	3184
292	3186
292	3188
292	3190
292	3192
291	3194
291	3196
291	3198
291	3200
290	3202
290	3204
290	3206
290	3208
289	3210
290	3212
289	3214
289	3216
288	3218
288	3220
288	3222
288	3224
288	3226
287	3228
287	3230
287	3232
287	3234
287	3236
287	3238
287	3240
287	3243
287	3245
286	3247
285	3249
285	3251
285	3253
285	3255
287	3257
289	3259
293	3261
298	3263
305	3265
312	3267
321	3269
330	3271
339	3273
347	3275
355	3277
361	3279
366	3281
369	3283
371	3286
371	3288
370	3290
368	3292
367	3294
364	3296
361	3298
358	3300
354	3302
351	3304
347	3306
344	3308
341	3310
338	3312
334	3314
331	3316
328	3318
325	3320
322	3322
319	3324
316	3326
315	3328
312	3330
310	3332
308	3334
305	3336
303	3338
301	3340
300	3342
297	3344
296	3346
294	3348
292	3350
291	3352
289	3354
288	3356
287	3358
286	3360
284	3362
283	3364
282	3366
281	3368
281	3371
280	3373
279	3375
279	3377
279	3379
278	3381
278	3383
278	3385
277	3387
277	3389
277	3391
277	3393
277	3395
277	3397
278	3399
277	3401
277	3403
278	3405
278	3407
278	3409
278	3411
279	3414
279	3416
280	3418
280	3420
281	3422
281	3424
281	3426
282	3428
283	3430
283	3432
284	3434
285	3436
286	3438
287	3440
287	3442
288	3444
289	3446
290	3448
292	3450
293	3452
295	3454
296	3456
297	3458
298	3460
300	3462
301	3464
303	3466
304	3468
305	3470
307	3472
308	3474
309	3476
310	3478
312	3480
313	3482
314	3484
315	3486
316	3488
317	3490
318	3492
318	3494
319	3496
320	3499
320	3501
321	3503
321	3505
321	3507
321	3509
321	3511
321	3513
320	3515
320	3517
320	3519
320	3521
319	3523
319	3525
319	3527
318	3529
317	3531
316	3533
316	3535
315	3537
314	3539
313	3542
312	3544
311	3546
310	3548
310	3550
308	3552
308	3554
307	3556
306	3558
305	3560
305	3562
304	3564
303	3566
302	3568
301	3570
301	3572
300	3574
300	3576
299	3578
299	3580
298	3582
298	3584
297	3586
296	3588
296	3590
295	3592
295	3594
295	3596
294	3598
294	3600
294	3602
293	3604
293	3606
292	3608
292	3610
292	3612
291	3614
291	3616
290	3618
290	3620
289	3622
290	3624
289	3627
290	3629
289	3631
289	3633
289	3635
290	3637
290	3639
290	3641
290	3643
290	3645
290	3647
290	3649
290	3651
290	3653
290	3655
290	3657
290	3659
290	3661
291	3663
291	3665
291	3667
292	3670
292	3672
293	3674
293	3676
294	3678
294	3680
295	3682
295	3684
295	3686
295	3688
295	3690
295	3692
295	3694
294	3696
295	3698
294	3700
294	3702
294	3704
293	3706
293	3708
293	3710
293	3712
292	3714
292	3716
291	3718
291	3720
291	3722
291	3724
291	3726
290	3728
290	3730
290	3732
290	3734
290	3736
290	3738
289	3740
290	3742
289	3744
289	3746
289	3748
289	3750
289	3752
289	3755
289	3757
289	3759
289	3761
289	3763
288	3765
287	3767
286	3769
286	3771
286	3773
286	3775
288	3777
291	3779
294	3781
299	3783
306	3785
314	3787
323	3789
332	3791
342	3793
350	3795
358	3798
364	3800
369	3802
373	3804
375	3806
375	3808
374	3810
373	3812
371	3814
369	3816
366	3818
362	3820
359	3822
355	3824
352	3826
348	3828
344	3830
341	3832
338	3834
334	3836
331	3838
329	3840
326	3842
323	3844
320	3846
317	3848
315	3850
312	3852
309	3854
307	3856
304	3858
302	3860
300	3862
298	3864
296	3866
294	3868
292	3870
291	3872
290	3874
288	3876
287	3878
286	3880
285	3883
284	3885
283	3887
282	3889
281	3891
281	3893
280	3895
279	3897
279	3899
279	3901
278	3903
278	3905
278	3907
277	3909
277	3911
277	3913
277	3915
277	3917
277	3919
277	3921
277	3923
277	3926
278	3928
278	3930
278	3932
279	3934
279	3936
279	3938
280	3940
280	3942
281	3944
282	3946
283	3948
283	3950
284	3952
285	3954
286	3956
287	3958
289	3960
290	3962
291	3964
292	3966
293	3968
294	3970
295	3972
296	3974
297	3976
299	3978
300	3980
302	3982
303	3984
304	3986
306	3988
307	3990
308	3992
310	3994
311	3996
312	3998
313	4000
314	4002
315	4004
316	4006
316	4008
317	4011
318	4013
319	4015
320	4017
320	4019
320	4021
321	4023
321	4025
321	4027
322	4029
322	4031
321	4033
321	4035
321	4037
321	4039
321	4041
320	4043
319	4045
319	4047
318	4049
318	4051
316	4054
316	4056
315	4058
314	4060
313	4062
312	4064
311	4066
310	4068
310	4070
309	4072
308	4074
307	4076
306	4078
305	4080
304	4082
304	4084
303	4086
302	4088
301	4090
301	4092
300	4094
300	4096
299	4098
298	4100
298	4102
297	4104
297	4106
296	4108
296	4110
296	4112
295	4114
294	4116
294	4118
294	4120
293	4122
293	4124
292	4126
292	4128
291	4130
291	4132
291	4134
291	4136
290	4139
290	4141
290	4143
290	4145
290	4147
290	4149
289	4151
289	4153
289	4155
289	4157
289	4159
289	4161
289	4163
289	4165
289	4167
289	4169
289	4171
289	4173
290	4175
289	4177
290	4179
290	4182
290	4184
291	4186
291	4188
292	4190
292	4192
292	4194
293	4196
293	4198
293	4200
294	4202
294	4204
295	4206
295	4208
295	4210
294	4212
294	4214
294	4216
294	4218
294	4220
294	4222
293	4224
293	4226
293	4228
292	4230
292	4232
292	4234
292	4236
292	4238
292	4240
291	4242
291	4244
290	4246
290	4248
290	4250
289	4252
289	4254
289	4256
290	4258
289	4260
289	4262
289	4264
289	4267
289	4269
289	4271
289	4273
288	4275
288	4277
288	4279
288	4281
287	4283
287	4285
286	4287
285	4289
285	4291
285	4293
287	4295
288	4297
292	4299
296	4301
302	4303
309	4305
317	4307
326	4310
336	4312
346	4314
354	4316
361	4318
367	4320
372	4322
375	4324
376	4326
376	4328
375	4330
374	4332
372	4334
369	4336
367	4338
363	4340
359	4342
356	4344
352	4346
348	4348
345	4350
343	4352
340	4354
336	4356
332	4358
329	4360
325	4362
322	4364
319	4366
316	4368
313	4370
311	4372
308	4374
306	4376
304	4378
301	4380
299	4382
298	4384
296	4386
294	4388
292	4390
291	4392
289	4395
288	4397
287	4399
285	4401
284	4403
283	4405
282	4407
281	4409
280	4411
280	4413
279	4415
279	4417
278	4419
278	4421
278	4423
277	4425
277	4427
277	4429
277	4431
277	4433
277	4435
277	4438
276	4440
276	4442
276	4444
277	4446
277	4448
277	4450
278	4452
278	4454
278	4456
279	4458
279	4460
280	4462
281	4464
282	4466
282	4468
283	4470
284	4472
285	4474
285	4476
287	4478
287	4480
288	4482
289	4484
290	4486
291	4488
293	4490
294	4492
295	4494
296	4496
298	4498
299	4500
301	4502
302	4504
304	4506
305	4508
306	4510
308	4512
309	4514
310	4516
311	4518
312	4520
314	4523
315	4525
316	4527
317	4529
318	4531
318	4533
319	4535
319	4537
320	4539
320	4541
320	4543
321	4545
321	4547
321	4549
321	4551
321	4553
321	4555
320	4557
320	4559
320	4561
319	4563
319	4566
318	4568
317	4570
316	4572
315	4574
314	4576
313	4578
312	4580
311	4582
310	4584
310	4586
308	4588
308	4590
307	4592
306	4594
305	4596
305	4598
304	4600
303	4602
302	4604
301	4606
301	4608
300	4610
299	4612
298	4614
298	4616
297	4618
297	4620
296	4622
296	4624
296	4626
295	4628
295	4630
294	4632
294	4634
293	4636
293	4638
293	4640
293	4642
292	4644
292	4646
292	4648
291	4651
290	4653
290	4655
290	4657
290	4659
290	4661
290	4663
289	4665
289	4667
289	4669
289	4671
289	4673
289	4675
289	4677
289	4679
289	4681
289	4683
289	4685
289	4687
289	4689
289	4691
289	4694
289	4696
289	4698
289	4700
289	4702
290	4704
290	4706
291	4708
291	4710
291	4712
292	4714
293	4716
293	4718
293	4720
294	4722
294	4724
293	4726
293	4728
293	4730
293	4732
293	4734
293	4736
294	4738
294	4740
293	4742
293	4744
293	4746
293	4748
292	4750
292	4752
291	4754
291	4756
290	4758
290	4760
290	4762
289	4764
289	4766
289	4768
289	4770
289	4772
289	4774
288	4776
288	4779
288	4781
288	4783
288	4785
288	4787
288	4789
288	4791
288	4793
287	4795
287	4797
287	4799
286	4801
286	4803
285	4805
285	4807
285	4809
286	4811
287	4813
290	4815
294	4817
300	4819
306	4822
314	4824
323	4826
333	4828
343	4830
351	4832
358	4834
365	4836
370	4838
374	4840
376	4842
376	4844
375	4846
373	4848
372	4850
369	4852
366	4854
363	4856
359	4858
355	4860
352	4862
350	4864
346	4866
343	4868
339	4870
336	4872
332	4874
328	4876
325	4878
322	4880
319	4882
316	4884
313	4886
311	4888
308	4890
306	4892
304	4894
302	4896
299	4898
297	4900
295	4902
293	4904
292	4907
290	4909
289	4911
288	4913
286	4915
285	4917
284	4919
283	4921
282	4923
281	4925
281	4927
280	4929
279	4931
278	4933
278	4935
278	4937
278	4939
278	4941
278	4943
277	4945
278	4947
277	4950
278	4952
277	4954
278	4956
278	4958
278	4960
278	4962
278	4964
278	4966
278	4968
278	4970
279	4972
279	4974
280	4976
280	4978
280	4980
281	4982
282	4984
282	4986
283	4988
284	4990
284	4992
285	4994
286	4996
287	4998
288	5000
289	5002
290	5004
292	5006
294	5008
295	5010
296	5012
297	5014
299	5016
300	5018
302	5020
303	5022
305	5024
306	5026
307	5028
309	5030
310	5032
312	5035
313	5037
314	5039
315	5041
316	5043
317	5045
318	5047
319	5049
320	5051
320	5053
321	5055
321	5057
322	5059
322	5061
322	5063
322	5065
322	5067
321	5069
321	5071
321	5073
320	5075
319	5078
319	5080
318	5082
318	5084
317	5086
316	5088
315	5090
315	5092
314	5094
313	5096
312	5098
311	5100
310	5102
309	5104
308	5106
307	5108
306	5110
305	5112
304	5114
304	5116
303	5118
303	5120
302	5122
302	5124
301	5126
301	5128
300	5130
299	5132
299	5134
298	5136
298	5138
297	5140
296	5142
296	5144
295	5146
295	5148
294	5150
294	5152
294	5154
293	5156
293	5158
293	5160
292	5163
292	5165
291	5167
291	5169
290	5171
290	5173
290	5175
289	5177
289	5179
289	5181
289	5183
289	5185
289	5187
289	5189
290	5191
289	5193
289	5195
289	5197
290	5199
290	5201
290	5203
290	5206
289	5208
290	5210
290	5212
290	5214
290	5216
290	5218
290	5220
291	5222
291	5224
291	5226
292	5228
292	5230
293	5232
293	5234
293	5236
294	5238
294	5240
294	5242
294	5244
294	5246
294	5248
294	5250
294	5252
294	5254
294	5256
294	5258
294	5260
293	5262
293	5264
293	5266
292	5268
292	5270
292	5272
292	5274
291	5276
291	5278
291	5280
291	5282
290	5284
290	5286
290	5288
290	5291
290	5293
289	5295
289	5297
289	5299
289	5301
289	5303
289	5305
288	5307
289	5309
288	5311
288	5313
288	5315
288	5317
287	5319
286	5321
286	5323
285	5325
286	5327
287	5329
288	5331
292	5334
296	5336
301	5338
308	5340
316	5342
325	5344
334	5346
343	5348
351	5350
358	5352
364	5354
369	5356
372	5358
373	5360
373	5362
371	5364
369	5366
367	5368
364	5370
361	5372
357	5374
356	5376
352	5378
348	5380
345	5382
341	5384
338	5386
335	5388
331	5390
328	5392
325	5394
322	5396
320	5398
317	5400
314	5402
311	5404
309	5406
306	5408
304	5410
302	5412
300	5414
298	5416
296	5419
294	5421
293	5423
291	5425
290	5427
288	5429
287	5431
286	5433
284	5435
283	5437
282	5439
282	5441
281	5443
281	5445
280	5447
280	5449
279	5451
279	5453
278	5455
278	5457
278	5459
278	5462
278	5464
278	5466
278	5468
278	5470
278	5472
278	5474
278	5476
278	5478
279	5480
279	5482
279	5484
280	5486
280	5488
280	5490
281	5492
281	5494
281	5496
282	5498
283	5500
283	5502
283	5504
284	5506
285	5508
286	5510
286	5512
287	5514
288	5516
289	5518
290	5520
291	5522
293	5524
294	5526
295	5528
297	5530
298	5532
299	5534
301	5536
302	5538
304	5540
305	5542
307	5544
308	5547
310	5549
311	5551
312	5553
314	5555
314	5557
316	5559
317	5561
317	5563
318	5565
319	5567
320	5569
320	5571
321	5573
321	5575
322	5577
322	5579
322	5581
322	5583
322	5585
322	5587
322	5590
321	5592
321	5594
320	5596
319	5598
319	5600
317	5602
317	5604
316	5606
315	5608
314	5610
313	5612
313	5614
311	5616
311	5618
310	5620
309	5622
308	5624
308	5626
307	5628
306	5630
305	5632
304	5634
304	5636
303	5638
303	5640
302	5642
302	5644
301	5646
300	5648
300	5650
300	5652
299	5654
298	5656
298	5658
297	5660
297	5662
296	5664
296	5666
296	5668
295	5670
295	5672
294	5675
294	5677
294	5679
293	5681
293	5683
293	5685
292	5687
292	5689
292	5691
292	5693
291	5695
291	5697
291	5699
291	5701
291	5703
290	5705
290	5707
290	5709
290	5711
290	5713
290	5715
290	5718
290	5720
291	5722
291	5724
291	5726
291	5728
291	5730
291	5732
291	5734
291	5736
291	5738
292	5740
292	5742
292	5744
293	5746
293	5748
293	5750
294	5752
294	5754
295	5756
295	5758
295	5760
295	5762
295	5764
295	5766
295	5768
295	5770
295	5772
294	5774
294	5776
294	5778
293	5780
293	5782
293	5784
292	5786
292	5788
292	5790
292	5792
292	5794
292	5796
292	5798
292	5800
291	5803
291	5805
291	5807
290	5809
290	5811
290	5813
290	5815
289	5817
289	5819
289	5821
289	5823
289	5825
288	5827
288	5829
288	5831
288	5833
288	5835
288	5837
287	5839
287	5841
287	5843
286	5846
287	5848
287	5850
289	5852
292	5854
295	5856
300	5858
307	5860
314	5862
322	5864
332	5866
341	5868
350	5870
357	5872
363	5874
368	5876
372	5878
375	5880
375	5882
373	5884
372	5886
370	5888
368	5890
365	5892
361	5894
358	5896
354	5898
350	5900
347	5902
343	5904
340	5906
337	5908
333	5910
330	5912
326	5914
323	5916
320	5918
317	5920
314	5922
312	5924
310	5926
308	5928
306	5931
303	5933
301	5935
299	5937
297	5939
296	5941
294	5943
293	5945
291	5947
290	5949
288	5951
287	5953
286	5955
284	5957
283	5959
282	5961
281	5963
281	5965
280	5967
279	5969
279	5971
278	5974
277	5976
277	5978
277	5980
276	5982
276	5984
276	5986
276	5988
276	5990
276	5992
276	5994
276	5996
277	5998
277	6000
277	6002
277	6004
278	6006
278	6008
278	6010
278	6012
279	6014
279	6016
279	6018
280	6020
281	6022
281	6024
282	6026
283	6028
283	6030
284	6032
285	6034
286	6036
287	6038
288	6040
289	6042
290	6044
291	6046
293	6048
294	6050
295	6052
296	6054
297	6056
298	6059
300	6061
301	6063
303	6065
304	6067
305	6069
306	6071
307	6073
308	6075
310	6077
311	6079
312	6081
313	6083
314	6085
314	6087
315	6089
316	6091
316	6093
317	6095
318	6097
318	6099
318	6102
318	6104
318	6106
318	6108
318	6110
318	6112
317	6114
316	6116
316	6118
315	6120
314	6122
314	6124
313	6126
312	6128
312	6130
311	6132
310	6134
309	6136
309	6138
308	6140
307	6142
307	6144
306	6146
305	6148
304	6150
304	6152
303	6154
302	6156
302	6158
301	6160
300	6162
300	6164
299	6166
299	6168
298	6170
298	6172
297	6174
297	6176
296	6178
296	6180
295	6182
295	6184
295	6187
295	6189
295	6191
295	6193
294	6195
294	6197
293	6199
293	6201
293	6203
292	6205
292	6207
292	6209
292	6211
292	6213
291	6215
291	6217
291	6219
291	6221
290	6223
290	6225
290	6227
290	6230
290	6232
290	6234
290	6236
290	6238
290	6240
290	6242
290	6244
290	6246
290	6248
291	6250
291	6252
291	6254
291	6256
291	6258
291	6260
291	6262
291	6264
292	6266
292	6268
292	6270
292	6272
293	6274
293	6276
294	6278
294	6280
295	6282
295	6284
295	6286
296	6288
296	6290
296	6292
296	6294
295	6296
295	6298
295	6300
295	6302
295	6304
295	6306
295	6308
294	6310
294	6312
294	6315
294	6317
293	6319
293	6321
293	6323
292	6325
292	6327
292	6329
292	6331
292	6333
291	6335
291	6337
291	6339
290	6341
290	6343
290	6345
290	6347
289	6349
289	6351
289	6353
289	6355
289	6358
290	6360
290	6362
289	6364
289	6366
289	6368
288	6370
288	6372
288	6374
288	6376
288	6378
289	6380
291	6382
294	6384
298	6386
304	6388
311	6390
319	6392
328	6394
337	6396
346	6398
351	6400
358	6402
365	6404
370	6406
374	6408
377	6410
377	6412
376	6414
375	6416
373	6418
371	6420
368	6422
364	6424
361	6426
357	6428
354	6430
350	6432
347	6434
343	6436
340	6438
336	6440
333	6443
330	6445
327	6447
323	6449
320	6451
318	6453
315	6455
312	6457
309	6459
306	6461
304	6463
302	6465
300	6467
298	6469
296	6471
295	6473
293	6475
291	6477
290	6479
289	6481
288	6483
287	6486
285	6488
284	6490
283	6492
282	6494
281	6496
281	6498
280	6500
279	6502
279	6504
279	6506
278	6508
278	6510
277	6512
278	6514
277	6516
278	6518
277	6520
278	6522
278	6524
277	6526
277	6528
277	6530
277	6532
278	6534
278	6536
278	6538
278	6540
279	6542
280	6544
280	6546
281	6548
281	6550
282	6552
282	6554
283	6556
284	6558
284	6560
285	6562
286	6564
287	6566
288	6568
290	6571
291	6573
292	6575
293	6577
295	6579
296	6581
297	6583
299	6585
300	6587
302	6589
303	6591
305	6593
306	6595
308	6597
309	6599
310	6601
312	6603
313	6605
314	6607
314	6609
315	6611
316	6614
317	6616
317	6618
318	6620
319	6622
319	6624
320	6626
320	6628
320	6630
320	6632
320	6634
320	6636
320	6638
320	6640
319	6642
319	6644
318	6646
317	6648
317	6650
316	6652
315	6654
315	6656
314	6658
313	6660
312	6662
311	6664
311	6666
310	6668
309	6670
309	6672
308	6674
307	6676
307	6678
306	6680
305	6682
304	6684
304	6686
303	6688
302	6690
301	6692
301	6694
300	6696
300	6699
299	6701
299	6703
298	6705
298	6707
297	6709
296	6711
296	6713
296	6715
296	6717
295	6719
294	6721
294	6723
294	6725
294	6727
294	6729
293	6731
293	6733
293	6735
292	6737
292	6739
292	6742
291	6744
291	6746
291	6748
291	6750
290	6752
291	6754
290	6756
290	6758
290	6760
290	6762
290	6764
290	6766
290	6768
290	6770
290	6772
290	6774
290	6776
290	6778
290	6780
290	6782
290	6784
290	6786
290	6788
290	6790
290	6792
291	6794
291	6796
291	6798
291	6800
292	6802
292	6804
292	6806
293	6808
293	6810
293	6812
294	6814
294	6816
294	6818
295	6820
295	6822
295	6824
295	6827
295	6829
295	6831
295	6833
295	6835
295	6837
295	6839
295	6841
294	6843
294	6845
294	6847
294	6849
294	6851
294	6853
293	6855
293	6857
292	6859
292	6861
292	6863
291	6865
291	6867
290	6870
290	6872
290	6874
289	6876
290	6878
289	6880
289	6882
290	6884
290	6886
289	6888
289	6890
289	6892
290	6894
289	6896
289	6898
289	6900
288	6902
288	6904
287	6906
287	6908
287	6910
288	6912
289	6914
291	6916
295	6918
299	6920
305	6922
312	6924
320	6926
329	6928
339	6930
348	6932
356	6934
363	6936
369	6938
374	6940
377	6942
378	6944
377	6946
376	6948
375	6950
373	6952
370	6955
367	6957
363	6959
360	6961
356	6963
352	6965
349	6967
346	6969
342	6971
338	6973
335	6975
331	6977
328	6979
325	6981
322	6983
319	6985
316	6987
314	6989
311	6991
308	6993
306	6995
304	6998
302	7000
299	7002
297	7004
295	7006
293	7008
292	7010
290	7012
289	7014
288	7016
287	7018
285	7020
284	7022
283	7024
283	7026
282	7028
281	7030
280	7032
280	7034
279	7036
279	7038
279	7040
278	7042
278	7044
278	7046
278	7048
278	7050
277	7052
277	7054
277	7056
278	7058
278	7060
278	7062
279	7064
279	7066
279	7068
279	7070
279	7072
279	7074
280	7076
280	7078
281	7080
281	7083
282	7085
283	7087
283	7089
284	7091
285	7093
286	7095
287	7097
288	7099
289	7101
290	7103
291	7105
292	7107
293	7109
294	7111
296	7113
297	7115
299	7117
300	7119
302	7121
303	7123
304	7126
306	7128
308	7130
309	7132
310	7134
311	7136
313	7138
314	7140
315	7142
316	7144
317	7146
318	7148
319	7150
320	7152
320	7154
321	7156
321	7158
322	7160
322	7162
322	7164
322	7166
322	7168
322	7170
322	7172
321	7174
321	7176
320	7178
320	7180
319	7182
319	7184
318	7186
316	7188
315	7190
314	7192
313	7194
313	7196
312	7198
311	7200
310	7202
309	7204
308	7206
307	7208
307	7211
306	7213
305	7215
304	7217
304	7219
303	7221
302	7223
302	7225
302	7227
301	7229
300	7231
300	7233
299	7235
299	7237
298	7239
298	7241
297	7243
297	7245
296	7247
295	7249
295	7251
295	7254
294	7256
294	7258
294	7260
294	7262
293	7264
293	7266
292	7268
291	7270
291	7272
291	7274
291	7276
291	7278
290	7280
290	7282
290	7284
290	7286
290	7288
289	7290
289	7292
289	7294
288	7296
288	7298
288	7300
288	7302
288	7304
288	7306
288	7308
288	7310
288	7312
288	7314
288	7316
288	7318
288	7320
288	7322
288	7324
289	7326
289	7328
290	7330
290	7332
290	7334
291	7336
290	7339
291	7341
291	7343
291	7345
292	7347
292	7349
292	7351
293	7353
293	7355
294	7357
294	7359
294	7361
295	7363
295	7365
296	7367
296	7369
296	7371
296	7373
296	7375
296	7377
296	7379
296	7382
296	7384
296	7386
296	7388
295	7390
295	7392
295	7394
294	7396
294	7398
293	7400
293	7402
292	7404
292	7406
292	7408
292	7410
291	7412
291	7414
291	7416
291	7418
291	7420
290	7422
290	7424
290	7426
290	7428
290	7430
290	7432
291	7434
291	7436
290	7438
291	7440
291	7442
291	7444
291	7446
290	7448
290	7450
289	7452
289	7454
289	7456
289	7458
290	7460
293	7462
296	7464
300	7467
306	7469
313	7471
321	7473
330	7475
340	7477
348	7479
356	7481
363	7483
368	7485
373	7487
375	7489
376	7491
375	7493
374	7495
372	7497
370	7499
367	7501
364	7503
360	7505
357	7507
353	7510
350	7512
346	7514
343	7516
340	7518
336	7520
333	7522
330	7524
327	7526
324	7528
321	7530
318	7532
315	7534
313	7536
310	7538
308	7540
306	7542
303	7544
301	7546
299	7548
297	7550
296	7552
295	7554
294	7556
292	7558
291	7560
289	7562
288	7564
287	7566
285	7568
284	7570
283	7572
282	7574
282	7576
281	7578
281	7580
280	7582
280	7584
279	7586
279	7588
279	7590
279	7592
278	7595
278	7597
278	7599
278	7601
278	7603
278	7605
278	7607
279	7609
279	7611
279	7613
280	7615
280	7617
280	7619
281	7621
281	7623
281	7625
282	7627
283	7629
284	7631
284	7633
285	7635
286	7638
287	7640
288	7642
288	7644
289	7646
290	7648
291	7650
292	7652
293	7654
294	7656
295	7658
297	7660
298	7662
300	7664
301	7666
303	7668
304	7670
306	7672
307	7674
309	7676
310	7678
311	7680
312	7682
313	7684
315	7686
316	7688
317	7690
318	7692
319	7694
320	7696
321	7698
322	7700
322	7702
323	7704
324	7706
324	7708
325	7710
325	7712
325	7714
325	7716
325	7718
325	7720
324	7723
323	7725
323	7727
322	7729
321	7731
320	7733
320	7735
318	7737
317	7739
316	7741
315	7743
314	7745
313	7747
312	7749
311	7751
310	7753
310	7755
308	7757
308	7759
307	7761
306	7763
305	7766
304	7768
303	7770
303	7772
302	7774
301	7776
301	7778
300	7780
299	7782
299	7784
298	7786
298	7788
298	7790
297	7792
296	7794
296	7796
296	7798
295	7800
295	7802
295	7804
294	7806
294	7808
294	7810
293	7812
293	7814
292	7816
292	7818
291	7820
291	7822
291	7824
290	7826
290	7828
289	7830
289	7832
289	7834
289	7836
289	7838
288	7840
288	7842
288	7844
288	7846
287	7848
287	7851
287	7853
287	7855
287	7857
286	7859
287	7861
287	7863
287	7865
287	7867
287	7869
287	7871
287	7873
287	7875
288	7877
288	7879
288	7881
288	7883
289	7885
289	7887
289	7889
289	7891
290	7894
290	7896
291	7898
291	7900
291	7902
292	7904
293	7906
293	7908
293	7910
294	7912
294	7914
294	7916
295	7918
295	7920
296	7922
296	7924
295	7926
296	7928
295	7930
295	7932
295	7934
295	7936
295	7938
295	7940
295	7942
295	7944
294	7946
294	7948
294	7950
293	7952
293	7954
293	7956
292	7958
292	7960
292	7962
292	7964
292	7966
292	7968
291	7970
291	7972
291	7974
291	7976
291	7979
291	7981
291	7983
291	7985
291	7987
291	7989
291	7991
291	7993
291	7995
291	7997
291	7999
290	8001
290	8003
290	8005
290	8007
290	8009
290	8011
292	8013
294	8015
297	8017
301	8019
307	8022
314	8024
323	8026
331	8028
341	8030
348	8032
356	8034
362	8036
367	8038
371	8040
373	8042
373	8044
372	8046
370	8048
368	8050
366	8052
363	8054
360	8056
356	8058
353	8060
349	8062
347	8064
344	8066
340	8068
337	8070
334	8072
331	8074
327	8076
324	8078
322	8080
319	8082
316	8084
313	8086
311	8088
309	8090
307	8092
305	8094
303	8096
300	8098
299	8100
297	8102
295	8104
294	8107
292	8109
290	8111
289	8113
288	8115
287	8117
286	8119
284	8121
283	8123
282	8125
282	8127
281	8129
280	8131
280	8133
280	8135
279	8137
279	8139
279	8141
279	8143
279	8145
279	8147
279	8150
279	8152
279	8154
279	8156
278	8158
279	8160
279	8162
280	8164
280	8166
280	8168
281	8170
281	8172
282	8174
282	8176
283	8178
283	8180
284	8182
284	8184
284	8186
285	8188
286	8190
286	8192
287	8194
287	8196
288	8198
289	8200
290	8202
292	8204
293	8206
294	8208
295	8210
297	8212
298	8214
300	8216
301	8218
302	8220
304	8222
305	8224
306	8226
308	8228
309	8230
311	8232
312	8235
313	8237
315	8239
316	8241
317	8243
318	8245
319	8247
320	8249
321	8251
322	8253
322	8255
323	8257
324	8259
324	8261
324	8263
325	8265
325	8267
325	8269
325	8271
324	8273
323	8275
323	8278
323	8280
322	8282
321	8284
320	8286
319	8288
318	8290
317	8292
316	8294
315	8296
314	8298
313	8300
312	8302
311	8304
311	8306
309	8308
309	8310
308	8312
307	8314
307	8316
306	8318
305	8320
304	8322
303	8324
303	8326
302	8328
301	8330
301	8332
300	8334
299	8336
299	8338
298	8340
298	8342
297	8344
297	8346
296	8348
296	8350
296	8352
295	8354
295	8356
295	8358
294	8360
294	8363
293	8365
293	8367
293	8369
293	8371
292	8373
292	8375
292	8377
291	8379
291	8381
291	8383
290	8385
290	8387
290	8389
289	8391
289	8393
289	8395
289	8397
289	8399
288	8401
288	8403
288	8406
287	8408
287	8410
287	8412
287	8414
287	8416
287	8418
287	8420
287	8422
287	8424
287	8426
287	8428
288	8430
288	8432
288	8434
288	8436
289	8438
289	8440
289	8442
290	8444
290	8446
290	8448
290	8450
290	8452
291	8454
292	8456
292	8458
293	8460
293	8462
294	8464
294	8466
294	8468
294	8470
295	8472
295	8474
296	8476
296	8478
296	8480
296	8482
296	8484
296	8486
296	8488
296	8491
295	8493
295	8495
295	8497
295	8499
294	8501
294	8503
294	8505
293	8507
293	8509
293	8511
293	8513
292	8515
292	8517
292	8519
292	8521
292	8523
291	8525
291	8527
292	8529
291	8531
291	8534
291	8536
291	8538
291	8540
291	8542
291	8544
290	8546
290	8548
290	8550
290	8552
290	8554
290	8556
289	8558
289	8560
289	8562
289	8564
290	8566
291	8568
294	8570
298	8572
303	8574
306	8576
312	8578
320	8580
328	8582
337	8584
346	8586
353	8588
359	8590
365	8592
369	8594
373	8596
374	8598
373	8600
371	8602
370	8604
367	8606
365	8608
362	8610
358	8612
355	8614
351	8616
348	8619
344	8621
341	8623
338	8625
334	8627
331	8629
328	8631
325	8633
322	8635
318	8637
316	8639
313	8641
310	8643
308	8645
306	8647
304	8649
302	8651
300	8653
298	8655
296	8657
295	8659
293	8662
292	8664
290	8666
289	8668
287	8670
286	8672
285	8674
284	8676
283	8678
282	8680
281	8682
280	8684
280	8686
279	8688
279	8690
278	8692
278	8694
278	8696
278	8698
278	8700
277	8702
277	8704
277	8706
277	8708
277	8710
277	8712
278	8714
278	8716
278	8718
278	8720
278	8722
278	8724
278	8726
279	8728
279	8730
280	8732
280	8734
281	8736
281	8738
282	8740
283	8742
283	8744
284	8747
285	8749
285	8751
287	8753
288	8755
288	8757
289	8759
291	8761
292	8763
293	8765
294	8767
296	8769
297	8771
298	8773
300	8775
301	8777
302	8779
304	8781
305	8783
306	8785
308	8787
309	8790
310	8792
312	8794
313	8796
314	8798
315	8800
316	8802
316	8804
317	8806
318	8808
319	8810
319	8812
320	8814
320	8816
320	8818
320	8820
320	8822
321	8824
320	8826
320	8828
320	8830
320	8832
319	8834
319	8836
318	8838
318	8840
317	8842
316	8844
316	8846
315	8848
314	8850
313	8852
312	8854
311	8856
310	8858
309	8860
308	8862
308	8864
307	8866
306	8868
305	8870
305	8872
304	8875
303	8877
303	8879
302	8881
301	8883
300	8885
300	8887
299	8889
299	8891
298	8893
298	8895
297	8897
297	8899
296	8901
296	8903
295	8905
295	8907
295	8909
294	8911
294	8913
294	8915
293	8918
293	8920
293	8922
292	8924
292	8926
292	8928
292	8930
291	8932
291	8934
291	8936
290	8938
290	8940
290	8942
290	8944
289	8946
289	8948
289	8950
288	8952
288	8954
288	8956
288	8958
288	8960
288	8962
288	8964
288	8966
288	8968
287	8970
287	8972
287	8974
287	8976
287	8978
287	8980
287	8982
287	8984
288	8986
288	8988
288	8990
288	8992
289	8994
289	8996
289	8998
290	9000
290	9003
290	9005
290	9007
291	9009
291	9011
291	9013
292	9015
293	9017
293	9019
293	9021
294	9023
294	9025
295	9027
295	9029
296	9031
296	9033
296	9035
297	9037
297	9039
297	9041
297	9043
297	9046
297	9048
297	9050
296	9052
296	9054
296	9056
295	9058
296	9060
295	9062
295	9064
295	9066
295	9068
295	9070
295	9072
294	9074
294	9076
294	9078
294	9080
294	9082
293	9084
293	9086
293	9088
293	9090
292	9092
292	9094
292	9096
292	9098
292	9100
292	9102
292	9104
291	9106
291	9108
291	9110
291	9112
291	9114
291	9116
290	9118
289	9120
289	9122
289	9124
289	9126
291	9128
293	9131
296	9133
300	9135
306	9137
313	9139
321	9141
330	9143
340	9145
348	9147
356	9149
362	9151
368	9153
372	9155
375	9157
376	9159
375	9161
374	9163
373	9165
370	9167
367	9169
365	9171
361	9174
358	9176
354	9178
351	9180
347	9182
344	9184
340	9186
337	9188
333	9190
330	9192
327	9194
324	9196
321	9198
318	9200
315	9202
313	9204
310	9206
308	9208
306	9210
304	9212
301	9214
300	9216
298	9218
297	9220
295	9222
294	9224
292	9226
291	9228
289	9230
288	9232
287	9234
286	9236
285	9238
284	9240
283	9242
282	9244
281	9246
281	9248
280	9250
280	9252
279	9254
279	9256
279	9259
278	9261
278	9263
278	9265
278	9267
278	9269
278	9271
278	9273
278	9275
278	9277
279	9279
278	9281
279	9283
279	9285
279	9287
280	9289
281	9291
281	9293
281	9295
282	9297
283	9299
284	9302
284	9304
286	9306
286	9308
287	9310
287	9312
288	9314
289	9316
290	9318
291	9320
292	9322
293	9324
294	9326
296	9328
297	9330
299	9332
300	9334
301	9336
303	9338
304	9340
305	9342
306	9344
308	9346
309	9348
311	9350
312	9352
313	9354
315	9356
316	9358
317	9360
318	9362
319	9364
319	9366
320	9368
321	9370
321	9372
322	9374
322	9376
322	9378
322	9380
322	9382
322	9384
322	9387
322	9389
322	9391
321	9393
321	9395
320	9397
320	9399
319	9401
318	9403
317	9405
317	9407
315	9409
315	9411
314	9413
313	9415
312	9417
311	9419
310	9421
310	9423
309	9425
308	9427
307	9430
306	9432
305	9434
304	9436
303	9438
303	9440
302	9442
301	9444
301	9446
300	9448
299	9450
299	9452
298	9454
297	9456
297	9458
296	9460
296	9462
296	9464
295	9466
295	9468
294	9470
294	9472
294	9474
294	9476
293	9478
293	9480
293	9482
292	9484
292	9486
291	9488
291	9490
291	9492
291	9494
291	9496
290	9498
290	9500
290	9502
289	9504
289	9506
289	9508
288	9510
288	9512
288	9515
288	9517
288	9519
288	9521
287	9523
287	9525
287	9527
287	9529
287	9531
287	9533
287	9535
286	9537
286	9539
286	9541
286	9543
286	9545
286	9547
286	9549
287	9551
287	9553
287	9555
287	9558
288	9560
288	9562
288	9564
289	9566
289	9568
289	9570
290	9572
290	9574
290	9576
290	9578
290	9580
291	9582
291	9584
291	9586
292	9588
292	9590
293	9592
293	9594
294	9596
294	9598
295	9600
295	9602
295	9604
295	9606
296	9608
296	9610
296	9612
297	9614
297	9616
297	9618
297	9620
297	9622
297	9624
297	9626
297	9628
296	9630
296	9632
296	9634
296	9636
296	9638
295	9640
295	9643
295	9645
294	9647
294	9649
294	9651
294	9653
294	9655
293	9657
293	9659
293	9661
293	9663
293	9665
293	9667
293	9669
292	9671
292	9673
292	9675
292	9677
292	9679
292	9681
292	9683
292	9686
292	9688
291	9690
291	9692
290	9694
289	9696
289	9698
290	9700
291	9702
294	9704
298	9706
302	9708
308	9710
315	9712
323	9714
332	9716
342	9718
350	9720
358	9722
364	9724
369	9726
372	9728
375	9730
376	9732
376	9734
375	9736
373	9738
371	9740
368	9742
366	9744
362	9746
359	9748
355	9750
352	9752
349	9754
345	9756
342	9758
338	9760
335	9762
332	9764
329	9766
326	9768
322	9771
320	9773
317	9775
314	9777
312	9779
309	9781
307	9783
304	9785
303	9787
301	9789
299	9791
297	9793
295	9795
293	9797
292	9799
291	9801
289	9803
288	9805
286	9807
285	9809
284	9811
283	9814
283	9816
282	9818
281	9820
281	9822
280	9824
280	9826
279	9828
279	9830
279	9832
279	9834
279	9836
279	9838
279	9840
279	9842
278	9844
278	9846
278	9848
279	9850
279	9852
279	9854
279	9856
279	9858
280	9860
280	9862
281	9864
281	9866
281	9868
282	9870
283	9872
283	9874
284	9876
285	9878
286	9880
286	9882
287	9884
288	9886
289	9888
290	9890
291	9892
293	9894
294	9896
295	9899
296	9901
298	9903
299	9905
301	9907
302	9909
304	9911
305	9913
306	9915
308	9917
309	9919
311	9921
312	9923
313	9925
314	9927
316	9929
317	9931
318	9933
319	9935
320	9937
320	9939
321	9942
322	9944
322	9946
323	9948
323	9950
323	9952
323	9954
323	9956
323	9958
323	9960
323	9962
323	9964
322	9966
322	9968
322	9970
321	9972
321	9974
320	9976
319	9978
319	9980
318	9982
317	9984
316	9986
315	9988
314	9990
313	9992
312	9994
312	9996
311	9998
310	10000
309	10002
308	10004
307	10006
306	10008
305	10010
304	10012
303	10014
303	10016
302	10018
301	10020
300	10022
299	10024
299	10027
297	10029
297	10031
296	10033
296	10035
295	10037
295	10039
295	10041
294	10043
294	10045
293	10047
293	10049
292	10051
292	10053
291	10055
291	10057
290	10059
290	10061
290	10063
289	10065
289	10067
289	10070
289	10072
288	10074
288	10076
288	10078
287	10080
287	10082
287	10084
287	10086
287	10088
287	10090
286	10092
286	10094
286	10096
286	10098
286	10100
286	10102
286	10104
285	10106
286	10108
285	10110
286	10112
286	10114
286	10116
286	10118
285	10120
285	10122
285	10124
285	10126
285	10128
285	10130
285	10132
286	10134
286	10136
287	10138
287	10140
288	10142
288	10144
288	10146
289	10148
289	10150
289	10152
290	10155
290	10157
290	10159
291	10161
291	10163
292	10165
292	10167
293	10169
293	10171
294	10173
294	10175
295	10177
295	10179
296	10181
296	10183
296	10185
296	10187
296	10189
296	10191
296	10193
296	10195
296	10198
296	10200
296	10202
295	10204
295	10206
295	10208
295	10210
295	10212
295	10214
294	10216
294	10218
294	10220
294	10222
294	10224
294	10226
293	10228
293	10230
294	10232
293	10234
293	10236
293	10238
293	10240
293	10242
293	10244
293	10246
292	10248
292	10250
292	10252
292	10254
292	10256
292	10258
292	10260
292	10262
291	10264
291	10266
290	10268
290	10270
289	10272
290	10274
291	10276
293	10278
296	10280
301	10283
307	10285
314	10287
322	10289
331	10291
340	10293
348	10295
356	10297
362	10299
368	10301
372	10303
374	10305
374	10307
373	10309
371	10311
370	10313
367	10315
364	10317
361	10319
358	10321
354	10323
351	10326
347	10328
344	10330
341	10332
337	10334
334	10336
331	10338
328	10340
325	10342
322	10344
319	10346
316	10348
314	10350
311	10352
309	10354
307	10356
305	10358
303	10360
301	10362
299	10364
297	10366
296	10368
294	10370
293	10372
292	10374
290	10376
289	10378
288	10380
287	10382
286	10384
285	10386
284	10388
283	10390
282	10392
282	10394
282	10396
281	10398
281	10400
281	10402
280	10404
280	10406
280	10408
280	10411
280	10413
280	10415
280	10417
280	10419
280	10421
280	10423
281	10425
281	10427
281	10429
281	10431
282	10433
282	10435
282	10437
283	10439
284	10441
284	10443
284	10445
285	10447
285	10449
286	10451
287	10454
288	10456
289	10458
289	10460
290	10462
291	10464
292	10466
293	10468
294	10470
295	10472
297	10474
298	10476
300	10478
301	10480
302	10482
304	10484
305	10486
307	10488
309	10490
310	10492
311	10494
312	10496
314	10498
315	10500
317	10502
317	10504
319	10506
320	10508
321	10510
322	10512
323	10514
324	10516
324	10518
325	10520
326	10522
327	10524
327	10526
327	10528
327	10530
327	10532
327	10534
327	10536
326	10539
325	10541
325	10543
324	10545
324	10547
323	10549
323	10551
322	10553
321	10555
320	10557
319	10559
318	10561
317	10563
316	10565
315	10567
314	10569
313	10571
312	10573
311	10575
310	10577
309	10579
308	10582
307	10584
306	10586
305	10588
304	10590
303	10592
303	10594
302	10596
301	10598
300	10600
300	10602
299	10604
299	10606
298	10608
297	10610
297	10612
296	10614
295	10616
295	10618
294	10620
293	10622
293	10624
292	10626
292	10628
292	10630
292	10632
291	10634
291	10636
290	10638
290	10640
289	10642
289	10644
288	10646
288	10648
288	10650
288	10652
287	10654
287	10656
287	10658
287	10660
287	10662
287	10664
286	10667
286	10669
286	10671
286	10673
285	10675
285	10677
285	10679
285	10681
285	10683
285	10685
285	10687
285	10689
285	10691
285	10693
285	10695
285	10697
285	10699
285	10701
285	10703
285	10705
286	10707
286	10710
287	10712
287	10714
287	10716
288	10718
288	10720
288	10722
289	10724
289	10726
289	10728
290	10730
290	10732
290	10734
291	10736
292	10738
292	10740
292	10742
293	10744
294	10746
294	10748
295	10750
295	10752
296	10754
296	10756
296	10758
297	10760
297	10762
297	10764
297	10766
297	10768
297	10770
297	10772
297	10774
296	10776
297	10778
296	10780
296	10782
296	10784
296	10786
296	10788
295	10790
295	10792
294	10795
294	10797
293	10799
293	10801
292	10803
292	10805
292	10807
292	10809
292	10811
292	10813
292	10815
292	10817
292	10819
292	10821
292	10823
292	10825
291	10827
291	10829
291	10831
291	10833
291	10835
290	10838
289	10840
289	10842
289	10844
290	10846
291	10848
294	10850
297	10852
301	10854
307	10856
314	10858
321	10860
330	10862
339	10864
347	10866
354	10868
361	10870
366	10872
369	10874
372	10876
372	10878
371	10880
370	10882
367	10884
365	10886
362	10888
359	10890
355	10892
352	10894
348	10896
345	10898
342	10900
339	10902
336	10904
333	10906
330	10908
327	10910
324	10912
321	10914
317	10916
315	10918
312	10920
310	10923
308	10925
305	10927
303	10929
301	10931
299	10933
297	10935
296	10937
294	10939
293	10941
292	10943
291	10945
289	10947
288	10949
287	10951
285	10953
285	10955
284	10957
284	10959
283	10961
283	10963
283	10966
282	10968
282	10970
282	10972
281	10974
281	10976
281	10978
280	10980
280	10982
280	10984
280	10986
280	10988
280	10990
281	10992
281	10994
281	10996
281	10998
281	11000
281	11002
281	11004
282	11006
282	11008
282	11010
283	11012
283	11014
284	11016
285	11018
285	11020
286	11022
286	11024
287	11026
288	11028
289	11030
290	11032
291	11034
291	11036
292	11038
294	11040
295	11042
296	11044
297	11046
298	11048
300	11051
301	11053
303	11055
304	11057
305	11059
307	11061
308	11063
309	11065
311	11067
312	11069
314	11071
315	11073
316	11075
317	11077
318	11079
320	11081
320	11083
321	11085
322	11087
323	11089
323	11091
324	11094
325	11096
325	11098
325	11100
325	11102
325	11104
325	11106
324	11108
324	11110
323	11112
324	11114
323	11116
322	11118
322	11120
321	11122
320	11124
320	11126
319	11128
318	11130
318	11132
317	11134
316	11136
315	11138
315	11140
313	11142
312	11144
311	11146
310	11148
309	11150
308	11152
308	11154
307	11156
306	11158
305	11160
304	11162
303	11164
302	11166
302	11168
301	11170
301	11172
300	11174
299	11176
299	11179
298	11181
298	11183
297	11185
296	11187
296	11189
295	11191
294	11193
294	11195
293	11197
293	11199
292	11201
292	11203
292	11205
292	11207
291	11209
291	11211
291	11213
290	11215
290	11217
290	11219
289	11222
289	11224
288	11226
288	11228
288	11230
288	11232
287	11234
288	11236
287	11238
287	11240
287	11242
287	11244
287	11246
287	11248
287	11250
286	11252
286	11254
286	11256
286	11258
285	11260
285	11262
286	11264
286	11266
286	11268
287	11270
287	11272
287	11274
288	11276
288	11278
288	11280
288	11282
289	11284
289	11286
289	11288
289	11290
289	11292
290	11294
290	11296
290	11298
291	11300
291	11302
292	11304
292	11307
293	11309
294	11311
294	11313
294	11315
295	11317
295	11319
296	11321
296	11323
296	11325
296	11327
296	11329
296	11331
295	11333
295	11335
295	11337
295	11339
295	11341
295	11343
294	11345
294	11347
294	11350
293	11352
293	11354
293	11356
293	11358
292	11360
292	11362
291	11364
291	11366
291	11368
291	11370
291	11372
291	11374
291	11376
290	11378
290	11380
290	11382
290	11384
290	11386
290	11388
290	11390
290	11392
290	11394
290	11396
290	11398
289	11400
289	11402
289	11404
289	11406
289	11408
291	11410
293	11412
296	11414
301	11416
306	11418
313	11420
321	11422
329	11424
338	11426
347	11428
354	11430
360	11432
365	11435
369	11437
371	11439
372	11441
371	11443
369	11445
367	11447
364	11449
361	11451
358	11453
355	11455
352	11457
348	11459
345	11461
342	11463
339	11465
336	11467
333	11469
330	11471
327	11473
324	11475
320	11478
318	11480
315	11482
313	11484
310	11486
308	11488
305	11490
303	11492
301	11494
299	11496
298	11498
296	11500
294	11502
293	11504
291	11506
290	11508
288	11510
287	11512
286	11514
285	11516
283	11518
283	11520
282	11522
282	11524
281	11526
280	11528
280	11530
280	11532
279	11534
279	11536
279	11538
279	11540
279	11542
279	11544
278	11546
279	11548
279	11550
279	11552
279	11554
279	11556
279	11558
279	11560
279	11563
280	11565
280	11567
280	11569
281	11571
281	11573
281	11575
281	11577
282	11579
283	11581
283	11583
284	11585
285	11587
285	11589
286	11591
287	11593
288	11595
289	11597
289	11599
290	11601
291	11603
292	11606
294	11608
295	11610
296	11612
298	11614
300	11616
301	11618
302	11620
303	11622
305	11624
306	11626
307	11628
308	11630
310	11632
311	11634
312	11636
313	11638
314	11640
315	11642
316	11644
317	11646
318	11648
319	11650
320	11652
320	11654
321	11656
321	11658
322	11660
322	11662
322	11664
322	11666
322	11668
322	11670
322	11672
321	11674
321	11676
320	11678
320	11680
319	11682
319	11684
318	11686
317	11688
316	11691
316	11693
315	11695
314	11697
313	11699
312	11701
312	11703
311	11705
310	11707
309	11709
308	11711
308	11713
307	11715
306	11717
305	11719
304	11721
304	11723
303	11725
302	11727
301	11729
301	11731
300	11734
299	11736
299	11738
298	11740
297	11742
297	11744
296	11746
296	11748
295	11750
295	11752
294	11754
294	11756
294	11758
293	11760
293	11762
292	11764
292	11766
292	11768
291	11770
291	11772
290	11774
290	11776
290	11778
290	11780
289	11782
289	11784
289	11786
288	11788
288	11790
288	11792
287	11794
287	11796
287	11798
287	11800
287	11802
287	11804
287	11806
287	11808
286	11810
286	11812
286	11814
286	11816
286	11819
286	11821
286	11823
286	11825
286	11827
287	11829
287	11831
287	11833
287	11835
288	11837
288	11839
288	11841
289	11843
289	11845
289	11847
290	11849
290	11851
290	11853
291	11855
291	11857
291	11859
292	11862
292	11864
293	11866
293	11868
294	11870
294	11872
294	11874
295	11876
295	11878
296	11880
296	11882
296	11884
296	11886
296	11888
296	11890
296	11892
296	11894
296	11896
296	11898
296	11900
296	11902
296	11904
295	11906
295	11908
295	11910
294	11912
294	11914
294	11916
294	11918
293	11920
293	11922
293	11924
292	11926
292	11928
292	11930
291	11932
291	11934
291	11936
291	11938
292	11940
292	11942
291	11944
291	11947
291	11949
291	11951
291	11953
291	11955
290	11957
290	11959
290	11961
289	11963
289	11965
288	11967
288	11969
289	11971
291	11973
293	11975
297	11977
302	11979
308	11981
316	11983
324	11985
333	11987
342	11990
350	11992
357	11994
363	11996
368	11998
372	12000
374	12002
374	12004
373	12006
371	12008
369	12010
367	12012
364	12014
360	12016
357	12018
354	12020
350	12022
347	12024
343	12026
341	12028
337	12030
335	12032
332	12034
329	12036
326	12038
323	12040
320	12042
318	12044
315	12046
313	12048
311	12050
308	12052
306	12054
303	12056
301	12058
299	12060
298	12062
296	12064
294	12066
293	12068
291	12070
290	12072
289	12075
287	12077
286	12079
285	12081
284	12083
284	12085
283	12087
282	12089
281	12091
280	12093
280	12095
280	12097
280	12099
279	12101
279	12103
279	12105
279	12107
279	12109
279	12111
279	12113
279	12115
279	12118
280	12120
280	12122
280	12124
281	12126
281	12128
281	12130
282	12132
282	12134
282	12136
283	12138
284	12140
284	12142
285	12144
285	12146
286	12148
287	12150
287	12152
288	12154
289	12156
290	12158
290	12160
291	12162
292	12164
293	12166
294	12168
296	12170
297	12172
298	12174
300	12176
301	12178
303	12180
304	12182
305	12184
307	12186
308	12188
310	12190
311	12192
313	12194
314	12196
315	12198
316	12200
317	12203
319	12205
319	12207
320	12209
321	12211
322	12213
323	12215
323	12217
323	12219
324	12221
324	12223
324	12225
324	12227
324	12229
324	12231
324	12233
323	12235
323	12237
323	12239
322	12241
322	12243
321	12246
320	12248
320	12250
319	12252
318	12254
317	12256
316	12258
316	12260
315	12262
314	12264
313	12266
312	12268
311	12270
310	12272
309	12274
308	12276
308	12278
306	12280
306	12282
305	12284
304	12286
304	12288
302	12290
302	12292
301	12294
300	12296
299	12298
299	12300
298	12302
297	12304
297	12306
296	12308
296	12310
295	12312
295	12314
294	12316
293	12318
292	12320
292	12322
292	12324
291	12326
291	12328
290	12331
290	12333
290	12335
289	12337
289	12339
289	12341
288	12343
288	12345
288	12347
288	12349
288	12351
288	12353
287	12355
287	12357
287	12359
287	12361
287	12363
286	12365
286	12367
286	12369
286	12371
285	12374
285	12376
285	12378
285	12380
285	12382
285	12384
286	12386
286	12388
286	12390
286	12392
287	12394
287	12396
287	12398
287	12400
288	12402
288	12404
288	12406
289	12408
289	12410
289	12412
290	12414
289	12416
290	12418
290	12420
291	12422
291	12424
292	12426
292	12428
294	12430
294	12432
295	12434
295	12436
296	12438
296	12440
296	12442
296	12444
296	12446
296	12448
296	12450
296	12452
296	12454
296	12456
296	12459
296	12461
296	12463
296	12465
296	12467
295	12469
295	12471
295	12473
294	12475
294	12477
294	12479
293	12481
293	12483
293	12485
293	12487
293	12489
293	12491
293	12493
293	12495
292	12497
293	12499
292	12502
293	12504
292	12506
292	12508
292	12510
292	12512
292	12514
292	12516
291	12518
291	12520
291	12522
290	12524
290	12526
289	12528
289	12530
289	12532
290	12534
292	12536
295	12538
299	12540
305	12542
308	12544
315	12546
324	12548
333	12550
342	12552
350	12554
357	12556
364	12558
369	12560
372	12562
374	12564
374	12566
373	12568
372	12570
370	12572
368	12574
365	12576
361	12578
358	12580
354	12582
351	12584
348	12587
344	12589
341	12591
337	12593
334	12595
331	12597
328	12599
325	12601
322	12603
319	12605
317	12607
314	12609
312	12611
309	12613
307	12615
305	12617
303	12619
301	12621
298	12623
297	12625
295	12627
293	12630
291	12632
290	12634
288	12636
287	12638
286	12640
285	12642
284	12644
283	12646
283	12648
282	12650
281	12652
281	12654
280	12656
280	12658
280	12660
279	12662
280	12664
280	12666
279	12668
279	12670
279	12672
280	12674
280	12676
280	12678
280	12680
280	12682
280	12684
280	12686
281	12688
281	12690
282	12692
282	12694
282	12696
283	12698
283	12700
284	12702
285	12704
285	12706
286	12708
287	12710
287	12712
288	12715
289	12717
289	12719
290	12721
291	12723
292	12725
293	12727
294	12729
295	12731
297	12733
298	12735
299	12737
301	12739
302	12741
304	12743
305	12745
307	12747
309	12749
310	12751
311	12753
313	12755
314	12758
316	12760
317	12762
318	12764
319	12766
320	12768
321	12770
322	12772
323	12774
323	12776
324	12778
324	12780
324	12782
325	12784
325	12786
325	12788
325	12790
325	12792
325	12794
325	12796
325	12798
324	12800
324	12802
324	12804
323	12806
322	12808
322	12810
321	12812
320	12814
319	12816
318	12818
317	12820
316	12822
315	12824
315	12826
314	12828
313	12830
312	12832
310	12834
309	12836
308	12838
308	12840
307	12843
306	12845
305	12847
304	12849
303	12851
302	12853
301	12855
301	12857
300	12859
299	12861
299	12863
298	12865
297	12867
297	12869
296	12871
295	12873
295	12875
294	12877
293	12879
293	12881
292	12883
291	12886
291	12888
291	12890
290	12892
290	12894
289	12896
289	12898
288	12900
288	12902
288	12904
287	12906
287	12908
286	12910
286	12912
286	12914
286	12916
286	12918
286	12920
285	12922
285	12924
285	12926
285	12928
285	12930
285	12932
284	12934
285	12936
285	12938
284	12940
284	12942
285	12944
285	12946
285	12948
285	12950
285	12952
285	12954
285	12956
286	12958
286	12960
287	12962
288	12964
288	12966
288	12968
288	12971
289	12973
289	12975
289	12977
289	12979
290	12981
290	12983
291	12985
291	12987
292	12989
292	12991
293	12993
293	12995
294	12997
294	12999
295	13001
295	13003
295	13005
295	13007
295	13009
295	13011
295	13014
295	13016
295	13018
295	13020
295	13022
295	13024
295	13026
295	13028
295	13030
295	13032
294	13034
294	13036
294	13038
293	13040
293	13042
293	13044
292	13046
292	13048
292	13050
292	13052
291	13054
292	13056
291	13058
291	13060
291	13062
291	13064
291	13066
291	13068
291	13070
291	13072
291	13074
291	13076
291	13078
290	13080
290	13082
290	13084
290	13086
289	13088
289	13090
288	13092
289	13094
290	13096
293	13099
296	13101
301	13103
307	13105
314	13107
323	13109
332	13111
341	13113
349	13115
356	13117
363	13119
368	13121
372	13123
374	13125
373	13127
372	13129
371	13131
369	13133
367	13135
364	13137
360	13139
357	13142
354	13144
351	13146
347	13148
343	13150
340	13152
337	13154
334	13156
330	13158
328	13160
325	13162
322	13164
319	13166
316	13168
313	13170
311	13172
309	13174
306	13176
304	13178
302	13180
300	13182
300	13184
298	13186
296	13188
294	13190
293	13192
291	13194
290	13196
289	13198
288	13200
287	13202
286	13204
285	13206
284	13208
283	13210
282	13212
282	13214
281	13216
280	13218
280	13220
279	13222
279	13224
279	13227
279	13229
279	13231
279	13233
279	13235
279	13237
279	13239
279	13241
280	13243
280	13245
280	13247
281	13249
281	13251
281	13253
282	13255
282	13257
282	13259
282	13261
283	13263
284	13265
284	13267
285	13270
286	13272
286	13274
287	13276
288	13278
290	13280
291	13282
292	13284
293	13286
294	13288
295	13290
296	13292
297	13294
299	13296
300	13298
302	13300
304	13302
305	13304
307	13306
308	13308
309	13310
310	13312
311	13314
313	13316
314	13318
316	13320
317	13322
318	13324
319	13326
320	13328
321	13330
322	13332
323	13334
324	13336
324	13338
325	13340
326	13342
327	13344
327	13346
327	13348
327	13350
326	13352
327	13355
326	13357
326	13359
326	13361
326	13363
325	13365
325	13367
324	13369
323	13371
323	13373
322	13375
321	13377
320	13379
319	13381
318	13383
317	13385
316	13387
315	13389
314	13391
313	13393
312	13395
310	13398
309	13400
308	13402
307	13404
306	13406
305	13408
304	13410
303	13412
302	13414
301	13416
301	13418
299	13420
299	13422
298	13424
297	13426
297	13428
296	13430
295	13432
295	13434
295	13436
294	13438
294	13440
293	13442
292	13444
291	13446
291	13448
290	13450
290	13452
290	13454
289	13456
289	13458
289	13460
288	13462
288	13464
288	13466
288	13468
287	13470
287	13472
287	13474
286	13476
285	13478
285	13480
285	13483
285	13485
285	13487
285	13489
285	13491
284	13493
284	13495
284	13497
284	13499
284	13501
284	13503
284	13505
285	13507
285	13509
285	13511
286	13513
286	13515
286	13517
286	13519
287	13521
287	13523
287	13526
287	13528
287	13530
288	13532
288	13534
289	13536
289	13538
290	13540
290	13542
291	13544
291	13546
292	13548
292	13550
293	13552
293	13554
293	13556
294	13558
294	13560
294	13562
294	13564
294	13566
294	13568
295	13570
295	13572
295	13574
295	13576
294	13578
294	13580
294	13582
294	13584
294	13586
293	13588
293	13590
293	13592
292	13594
292	13596
292	13598
291	13600
291	13602
290	13604
290	13606
290	13608
290	13611
290	13613
290	13615
290	13617
290	13619
290	13621
290	13623
290	13625
290	13627
290	13629
290	13631
289	13633
289	13635
289	13637
289	13639
288	13641
288	13643
288	13645
289	13647
291	13649
293	13651
297	13654
302	13656
308	13658
315	13660
323	13662
331	13664
341	13666
349	13668
356	13670
361	13672
366	13674
369	13676
370	13678
370	13680
368	13682
366	13684
364	13686
361	13688
358	13690
354	13692
351	13694
349	13696
346	13698
342	13700
339	13702
336	13704
333	13706
330	13708
327	13710
324	13712
321	13714
318	13716
316	13718
313	13720
311	13722
309	13724
306	13726
304	13728
303	13730
301	13732
299	13734
297	13736
296	13739
294	13741
292	13743
291	13745
290	13747
288	13749
287	13751
286	13753
285	13755
285	13757
284	13759
283	13761
283	13763
282	13765
282	13767
281	13769
281	13771
281	13773
281	13775
281	13777
281	13779
280	13782
280	13784
280	13786
280	13788
280	13790
280	13792
281	13794
281	13796
281	13798
281	13800
281	13802
282	13804
282	13806
283	13808
283	13810
283	13812
284	13814
285	13816
285	13818
286	13820
286	13822
287	13824
287	13826
288	13828
288	13830
289	13832
290	13834
291	13836
293	13838
294	13840
295	13842
296	13844
298	13846
299	13848
300	13850
301	13852
303	13854
304	13856
306	13858
307	13860
308	13862
310	13864
311	13867
313	13869
314	13871
315	13873
317	13875
318	13877
319	13879
320	13881
321	13883
322	13885
323	13887
324	13889
324	13891
325	13893
325	13895
326	13897
326	13899
326	13901
326	13903
326	13905
325	13907
325	13910
325	13912
324	13914
324	13916
324	13918
323	13920
323	13922
322	13924
321	13926
320	13928
320	13930
319	13932
318	13934
317	13936
316	13938
315	13940
314	13942
313	13944
312	13946
311	13948
310	13950
310	13952
309	13954
308	13956
307	13958
306	13960
305	13962
304	13964
303	13966
302	13968
301	13970
300	13972
300	13974
299	13976
298	13978
297	13980
297	13982
296	13984
296	13986
295	13988
294	13990
294	13992
293	13995
292	13997
292	13999
291	14001
291	14003
291	14005
290	14007
290	14009
290	14011
289	14013
289	14015
288	14017
288	14019
287	14021
287	14023
287	14025
286	14027
286	14029
286	14031
285	14033
285	14035
285	14038
285	14040
285	14042
285	14044
285	14046
285	14048
285	14050
286	14052
286	14054
286	14056
287	14058
287	14060
288	14062
288	14064
288	14066
288	14068
288	14070
288	14072
288	14074
289	14076
289	14078
289	14080
289	14082
290	14084
290	14086
291	14088
291	14090
292	14092
292	14094
293	14096
293	14098
293	14100
293	14102
293	14104
294	14106
294	14108
294	14110
294	14112
294	14114
294	14116
295	14118
294	14120
293	14123
293	14125
293	14127
293	14129
293	14131
292	14133
292	14135
292	14137
292	14139
291	14141
291	14143
291	14145
290	14147
290	14149
290	14151
290	14153
290	14155
290	14157
289	14159
289	14161
289	14163
289	14166
290	14168
290	14170
289	14172
289	14174
289	14176
289	14178
288	14180
288	14182
288	14184
287	14186
287	14188
288	14190
289	14192
291	14194
294	14196
298	14198
304	14200
311	14202
318	14204
327	14206
331	14208
340	14210
349	14212
355	14214
361	14216
366	14218
369	14220
371	14222
371	14224
369	14226
367	14228
364	14230
362	14232
358	14234
355	14236
351	14238
347	14240
344	14242
341	14244
338	14246
334	14248
331	14251
328	14253
326	14255
322	14257
319	14259
317	14261
314	14263
311	14265
309	14267
307	14269
305	14271
303	14273
300	14275
299	14277
297	14279
295	14281
294	14283
292	14285
291	14287
290	14289
288	14291
287	14294
286	14296
285	14298
284	14300
283	14302
282	14304
282	14306
281	14308
281	14310
280	14312
280	14314
279	14316
279	14318
279	14320
279	14322
279	14324
279	14326
279	14328
278	14330
279	14332
279	14334
279	14336
279	14338
279	14340
279	14342
280	14344
280	14346
280	14348
281	14350
281	14352
282	14354
282	14356
283	14358
284	14360
284	14362
284	14364
285	14366
286	14368
286	14370
287	14372
288	14374
289	14376
290	14379
291	14381
291	14383
292	14385
293	14387
295	14389
296	14391
297	14393
298	14395
300	14397
301	14399
303	14401
304	14403
305	14405
307	14407
308	14409
309	14411
310	14413
312	14415
313	14417
314	14419
315	14422
316	14424
317	14426
318	14428
319	14430
320	14432
320	14434
321	14436
321	14438
322	14440
322	14442
322	14444
322	14446
322	14448
323	14450
322	14452
322	14454
322	14456
322	14458
321	14460
321	14462
321	14464
320	14466
320	14468
319	14470
318	14472
317	14474
317	14476
316	14478
315	14480
314	14482
313	14484
312	14486
311	14488
310	14490
309	14492
308	14494
308	14496
307	14498
306	14500
305	14502
304	14504
304	14507
303	14509
301	14511
301	14513
300	14515
300	14517
299	14519
298	14521
298	14523
297	14525
296	14527
296	14529
295	14531
295	14533
294	14535
294	14537
293	14539
293	14541
292	14543
292	14545
291	14547
291	14550
290	14552
290	14554
290	14556
289	14558
289	14560
289	14562
289	14564
288	14566
289	14568
288	14570
288	14572
287	14574
287	14576
287	14578
287	14580
286	14582
286	14584
286	14586
286	14588
286	14590
286	14592
287	14594
287	14596
288	14598
288	14600
288	14602
288	14604
288	14606
288	14608
289	14610
289	14612
290	14614
290	14616
290	14618
291	14620
291	14622
292	14624
292	14626
293	14628
293	14630
294	14632
294	14635
294	14637
294	14639
295	14641
295	14643
295	14645
295	14647
294	14649
294	14651
294	14653
294	14655
294	14657
294	14659
293	14661
293	14663
293	14665
292	14667
292	14669
292	14671
291	14673
291	14675
290	14678
290	14680
290	14682
290	14684
290	14686
290	14688
289	14690
289	14692
289	14694
289	14696
289	14698
289	14700
289	14702
289	14704
289	14706
289	14708
289	14710
289	14712
288	14714
288	14716
287	14718
287	14720
286	14722
286	14724
286	14726
287	14728
289	14730
292	14732
296	14734
301	14736
308	14738
315	14740
324	14742
333	14744
342	14746
350	14748
357	14750
363	14752
368	14754
371	14756
373	14758
372	14760
371	14763
369	14765
367	14767
364	14769
361	14771
358	14773
354	14775
351	14777
347	14779
344	14781
341	14783
338	14785
334	14787
331	14789
328	14791
325	14793
323	14795
320	14797
317	14799
314	14801
311	14803
309	14806
307	14808
304	14810
302	14812
300	14814
298	14816
296	14818
294	14820
293	14822
291	14824
290	14826
289	14828
287	14830
286	14832
285	14834
284	14836
283	14838
282	14840
281	14842
280	14844
279	14846
279	14848
279	14850
279	14852
278	14854
279	14856
278	14858
278	14860
278	14862
278	14864
278	14866
278	14868
278	14870
278	14872
278	14874
278	14876
279	14878
279	14880
279	14882
280	14884
280	14886
280	14888
281	14891
281	14893
282	14895
282	14897
283	14899
284	14901
284	14903
285	14905
286	14907
287	14909
288	14911
288	14913
289	14915
290	14917
291	14919
293	14921
294	14923
295	14925
296	14927
297	14929
299	14931
300	14934
301	14936
303	14938
304	14940
306	14942
307	14944
309	14946
310	14948
311	14950
313	14952
314	14954
315	14956
316	14958
317	14960
318	14962
319	14964
320	14966
320	14968
321	14970
322	14972
322	14974
323	14976
323	14978
324	14980
324	14982
323	14984
323	14986
323	14988
323	14990
322	14992
322	14994
322	14996
321	14998
320	15000
320	15002
319	15004
319	15006
318	15008
317	15010
316	15012
315	15014
314	15016
313	15019
312	15021
311	15023
311	15025
309	15027
308	15029
307	15031
307	15033
306	15035
305	15037
305	15039
304	15041
303	15043
302	15045
302	15047
301	15049
301	15051
300	15053
299	15055
299	15057
298	15059
298	15062
297	15064
296	15066
295	15068
294	15070
294	15072
293	15074
292	15076
292	15078
291	15080
291	15082
291	15084
290	15086
290	15088
289	15090
289	15092
289	15094
288	15096
288	15098
288	15100
287	15102
287	15104
287	15106
287	15108
287	15110
287	15112
288	15114
288	15116
288	15118
288	15120
288	15122
288	15124
288	15126
289	15128
288	15130
289	15132
289	15134
289	15136
290	15138
290	15140
290	15142
291	15144
291	15147
292	15149
292	15151
292	15153
293	15155
293	15157
293	15159
293	15161
294	15163
294	15165
294	15167
294	15169
294	15171
294	15173
294	15175
294	15177
294	15179
293	15181
293	15183
293	15185
293	15187
293	15190
292	15192
292	15194
292	15196
292	15198
291	15200
291	15202
291	15204
291	15206
291	15208
291	15210
290	15212
290	15214
289	15216
289	15218
289	15220
289	15222
289	15224
289	15226
289	15228
289	15230
289	15232
289	15234
289	15236
289	15238
288	15240
288	15242
288	15244
287	15246
286	15248
286	15250
286	15252
286	15254
288	15256
290	15258
294	15260
298	15262
305	15264
312	15266
320	15268
330	15270
340	15272
349	15275
357	15277
363	15279
369	15281
373	15283
375	15285
375	15287
374	15289
373	15291
372	15293
369	15295
367	15297
363	15299
359	15301
355	15303
352	15305
348	15307
345	15309
341	15311
338	15313
334	15315
331	15318
328	15320
325	15322
322	15324
319	15326
316	15328
313	15330
310	15332
308	15334
305	15336
303	15338
301	15340
299	15342
297	15344
295	15346
293	15348
291	15350
290	15352
288	15354
287	15356
286	15358
285	15360
284	15362
284	15364
283	15366
282	15368
281	15370
280	15372
280	15374
279	15376
279	15378
278	15380
278	15382
278	15384
278	15386
278	15388
277	15390
277	15392
277	15394
278	15396
278	15398
278	15400
278	15403
279	15405
279	15407
279	15409
279	15411
280	15413
280	15415
281	15417
281	15419
281	15421
282	15423
283	15425
284	15427
284	15429
285	15431
286	15433
286	15435
287	15437
288	15439
289	15441
290	15443
290	15446
291	15448
293	15450
294	15452
295	15454
297	15456
298	15458
299	15460
301	15462
303	15464
304	15466
305	15468
307	15470
308	15472
310	15474
311	15476
313	15478
314	15480
315	15482
316	15484
317	15486
318	15488
319	15490
320	15492
320	15494
321	15496
321	15498
322	15500
322	15502
323	15504
323	15506
323	15508
323	15510
323	15512
323	15514
323	15516
322	15518
322	15520
322	15522
321	15524
321	15526
320	15528
319	15531
318	15533
317	15535
316	15537
315	15539
315	15541
314	15543
313	15545
312	15547
311	15549
310	15551
310	15553
309	15555
308	15557
307	15559
306	15561
306	15563
305	15565
304	15567
303	15569
302	15571
301	15574
300	15576
299	15578
298	15580
298	15582
297	15584
296	15586
296	15588
295	15590
295	15592
294	15594
294	15596
293	15598
293	15600
292	15602
292	15604
291	15606
290	15608
290	15610
290	15612
289	15614
289	15616
289	15618
288	15620
288	15622
287	15624
287	15626
287	15628
287	15630
287	15632
287	15634
287	15636
287	15638
287	15640
287	15642
288	15644
288	15646
288	15648
288	15650
288	15652
288	15654
288	15656
288	15659
288	15661
289	15663
288	15665
289	15667
289	15669
289	15671
290	15673
290	15675
291	15677
292	15679
292	15681
292	15683
292	15685
293	15687
292	15689
293	15691
293	15693
293	15695
293	15697
293	15699
293	15702
293	15704
292	15706
292	15708
292	15710
292	15712
292	15714
291	15716
291	15718
290	15720
290	15722
290	15724
289	15726
289	15728
289	15730
289	15732
288	15734
288	15736
288	15738
288	15740
288	15742
288	15744
288	15746
288	15748
288	15750
288	15752
288	15754
288	15756
288	15758
288	15760
287	15762
287	15764
287	15766
286	15768
285	15770
285	15772
285	15774
285	15776
287	15778
289	15780
292	15782
297	15784
303	15787
310	15789
319	15791
328	15793
338	15795
347	15797
355	15799
361	15801
367	15803
371	15805
373	15807
374	15809
373	15811
372	15813
370	15815
368	15817
365	15819
361	15821
358	15823
355	15825
351	15827
347	15830
344	15832
341	15834
337	15836
334	15838
330	15840
327	15842
324	15844
321	15846
318	15848
315	15850
313	15852
310	15854
308	15856
306	15858
303	15860
301	15862
299	15864
297	15866
295	15868
293	15870
293	15872
291	15874
289	15876
288	15878
287	15880
286	15882
285	15884
284	15886
283	15888
282	15890
281	15892
281	15894
280	15896
280	15898
279	15900
279	15902
278	15904
279	15906
279	15908
279	15910
278	15912
278	15915
278	15917
278	15919
278	15921
278	15923
278	15925
278	15927
278	15929
278	15931
279	15933
279	15935
280	15937
280	15939
281	15941
281	15943
282	15945
283	15947
283	15949
284	15951
285	15953
286	15955
287	15958
288	15960
289	15962
290	15964
291	15966
292	15968
293	15970
294	15972
296	15974
297	15976
298	15978
299	15980
301	15982
302	15984
304	15986
305	15988
307	15990
308	15992
310	15994
311	15996
313	15998
313	16000
314	16002
316	16004
317	16006
318	16008
319	16010
320	16012
321	16014
322	16016
323	16018
323	16020
324	16022
324	16024
324	16026
324	16028
324	16030
325	16032
324	16034
324	16036
324	16038
324	16040
324	16043
323	16045
323	16047
322	16049
321	16051
321	16053
320	16055
319	16057
318	16059
317	16061
317	16063
316	16065
314	16067
314	16069
313	16071
312	16073
311	16075
310	16077
309	16079
308	16081
307	16083
306	16086
305	16088
304	16090
303	16092
302	16094
302	16096
301	16098
300	16100
299	16102
298	16104
298	16106
297	16108
296	16110
296	16112
295	16114
294	16116
294	16118
293	16120
293	16122
293	16124
292	16126
292	16128
291	16130
291	16132
290	16134
290	16136
290	16138
289	16140
289	16142
289	16144
288	16146
288	16148
288	16150
288	16152
288	16154
288	16156
289	16158
288	16160
288	16162
288	16164
288	16166
288	16168
288	16171
288	16173
288	16175
288	16177
288	16179
288	16181
289	16183
289	16185
290	16187
290	16189
290	16191
291	16193
291	16195
291	16197
291	16199
291	16201
292	16203
292	16205
292	16207
292	16209
293	16211
293	16214
293	16216
292	16218
292	16220
292	16222
292	16224
292	16226
292	16228
292	16230
291	16232
291	16234
290	16236
290	16238
290	16240
289	16242
289	16244
289	16246
289	16248
289	16250
289	16252
289	16254
289	16256
289	16258
289	16260
289	16262
288	16264
288	16266
288	16268
288	16270
288	16272
287	16274
287	16276
287	16278
287	16280
287	16282
286	16284
285	16286
285	16288
285	16290
285	16292
287	16294
289	16296
293	16299
297	16301
303	16303
310	16305
319	16307
328	16309
337	16311
346	16313
354	16315
361	16317
366	16319
370	16321
372	16323
372	16325
370	16327
369	16329
366	16331
364	16333
361	16335
358	16337
354	16339
350	16342
347	16344
343	16346
340	16348
337	16350
333	16352
330	16354
327	16356
324	16358
321	16360
318	16362
315	16364
313	16366
310	16368
308	16370
305	16372
303	16374
301	16376
299	16378
297	16380
296	16382
295	16384
294	16386
292	16388
291	16390
290	16392
288	16394
287	16396
286	16398
285	16400
284	16402
283	16404
282	16406
282	16408
281	16410
281	16412
280	16414
280	16416
280	16418
279	16420
279	16422
279	16424
279	16427
279	16429
279	16431
279	16433
279	16435
279	16437
279	16439
279	16441
280	16443
280	16445
280	16447
281	16449
282	16451
282	16453
282	16455
282	16457
282	16459
283	16461
283	16463
284	16465
285	16467
286	16470
287	16472
288	16474
288	16476
289	16478
290	16480
291	16482
292	16484
293	16486
294	16488
296	16490
297	16492
298	16494
299	16496
301	16498
302	16500
304	16502
305	16504
306	16506
308	16508
309	16510
310	16512
311	16514
313	16516
314	16518
315	16520
317	16522
318	16524
319	16526
319	16528
320	16530
321	16532
322	16534
323	16536
323	16538
323	16540
324	16542
324	16544
324	16546
324	16548
324	16550
324	16552
323	16555
323	16557
323	16559
322	16561
322	16563
321	16565
320	16567
320	16569
319	16571
318	16573
317	16575
317	16577
316	16579
315	16581
314	16583
313	16585
312	16587
311	16589
310	16591
309	16593
308	16595
307	16598
306	16600
306	16602
305	16604
304	16606
303	16608
302	16610
301	16612
301	16614
300	16616
299	16618
299	16620
298	16622
297	16624
296	16626
296	16628
295	16630
295	16632
294	16634
294	16636
294	16638
293	16640
293	16642
293	16644
292	16646
292	16648
292	16650
291	16652
291	16654
290	16656
290	16658
290	16660
290	16662
290	16664
290	16666
289	16668
290	16670
289	16672
289	16674
289	16676
289	16678
289	16680
289	16683
289	16685
289	16687
289	16689
289	16691
290	16693
290	16695
290	16697
290	16699
290	16701
291	16703
291	16705
291	16707
291	16709
291	16711
292	16713
292	16715
293	16717
293	16719
294	16721
294	16723
294	16726
294	16728
294	16730
294	16732
293	16734
293	16736
293	16738
293	16740
293	16742
292	16744
292	16746
291	16748
291	16750
291	16752
290	16754
290	16756
290	16758
290	16760
290	16762
289	16764
289	16766
289	16768
288	16770
288	16772
288	16774
288	16776
288	16778
288	16780
288	16782
288	16784
288	16786
288	16788
288	16790
287	16792
287	16794
286	16796
286	16798
286	16800
285	16802
285	16804
285	16806
286	16808
287	16811
289	16813
293	16815
297	16817
303	16819
310	16821
319	16823
327	16825
336	16827
345	16829
353	16831
360	16833
365	16835
369	16837
371	16839
372	16841
371	16843
369	16845
367	16847
365	16849
361	16851
358	16854
354	16856
351	16858
347	16860
344	16862
340	16864
337	16866
334	16868
331	16870
328	16872
325	16874
322	16876
319	16878
316	16880
313	16882
310	16884
308	16886
305	16888
303	16890
301	16892
299	16894
298	16896
296	16898
294	16900
293	16902
291	16904
290	16906
289	16908
288	16910
287	16912
285	16914
284	16916
283	16918
282	16920
282	16922
281	16924
280	16926
280	16928
279	16930
279	16932
279	16934
278	16936
278	16939
278	16941
278	16943
277	16945
278	16947
277	16949
278	16951
278	16953
278	16955
278	16957
278	16959
278	16961
279	16963
279	16965
279	16967
279	16969
280	16971
280	16973
280	16975
281	16977
281	16979
282	16982
283	16984
284	16986
285	16988
285	16990
286	16992
287	16994
288	16996
289	16998
290	17000
291	17002
292	17004
294	17006
295	17008
296	17010
298	17012
299	17014
300	17016
301	17018
302	17020
304	17022
304	17024
306	17026
307	17028
308	17030
309	17032
311	17034
312	17036
313	17038
314	17040
315	17042
316	17044
317	17046
318	17048
318	17050
319	17052
319	17054
320	17056
320	17058
320	17060
321	17062
321	17064
321	17067
320	17069
320	17071
320	17073
320	17075
319	17077
319	17079
318	17081
318	17083
317	17085
317	17087
315	17089
315	17091
314	17093
313	17095
313	17097
312	17099
311	17101
310	17103
309	17105
309	17107
308	17110
307	17112
306	17114
305	17116
305	17118
304	17120
303	17122
302	17124
302	17126
301	17128
300	17130
300	17132
299	17134
299	17136
298	17138
298	17140
298	17142
297	17144
297	17146
296	17148
296	17150
295	17152
295	17154
294	17156
294	17158
293	17160
293	17162
292	17164
292	17166
291	17168
291	17170
291	17172
290	17174
290	17176
289	17178
289	17180
290	17182
290	17184
290	17186
290	17188
290	17190
290	17192
290	17195
290	17197
290	17199
290	17201
290	17203
289	17205
290	17207
290	17209
290	17211
290	17213
290	17215
291	17217
291	17219
291	17221
292	17223
292	17225
293	17227
293	17229
293	17231
294	17233
294	17235
293	17238
293	17240
294	17242
294	17244
294	17246
293	17248
293	17250
293	17252
293	17254
293	17256
293	17258
293	17260
292	17262
292	17264
292	17266
291	17268
291	17270
291	17272
290	17274
290	17276
289	17278
289	17280
289	17282
289	17284
289	17286
289	17288
288	17290
289	17292
288	17294
288	17296
288	17298
287	17300
287	17302
287	17304
287	17306
287	17308
287	17310
287	17312
286	17314
286	17316
285	17318
285	17320
285	17323
285	17325
286	17327
288	17329
291	17331
296	17333
302	17335
309	17337
317	17339
326	17341
335	17343
345	17345
353	17347
360	17349
366	17351
371	17353
374	17355
375	17357
375	17359
373	17361
371	17363
369	17366
366	17368
363	17370
360	17372
357	17374
353	17376
349	17378
346	17380
342	17382
339	17384
335	17386
332	17388
328	17390
325	17392
322	17394
319	17396
317	17398
314	17400
311	17402
309	17404
307	17406
305	17408
303	17410
301	17412
299	17414
297	17416
295	17418
293	17420
292	17422
290	17424
288	17426
287	17428
285	17430
284	17432
283	17434
282	17436
281	17438
281	17440
280	17442
279	17444
279	17446
278	17448
278	17451
277	17453
277	17455
277	17457
277	17459
277	17461
277	17463
277	17465
276	17467
276	17469
276	17471
276	17473
277	17475
277	17477
277	17479
277	17481
278	17483
278	17485
279	17487
279	17489
279	17491
280	17494
280	17496
281	17498
282	17500
282	17502
283	17504
284	17506
284	17508
285	17510
286	17512
287	17514
288	17516
289	17518
290	17520
291	17522
293	17524
295	17526
296	17528
298	17530
299	17532
301	17534
302	17536
303	17538
304	17540
306	17542
307	17544
308	17546
309	17548
310	17550
311	17552
312	17554
313	17556
314	17558
315	17560
317	17562
317	17564
318	17566
319	17568
319	17570
320	17572
320	17574
320	17576
320	17579
320	17581
320	17583
320	17585
319	17587
319	17589
318	17591
318	17593
318	17595
317	17597
316	17599
316	17601
316	17603
315	17605
314	17607
314	17609
313	17611
313	17613
312	17615
311	17617
310	17619
310	17622
309	17624
308	17626
307	17628
306	17630
305	17632
304	17634
304	17636
303	17638
303	17640
302	17642
301	17644
301	17646
300	17648
299	17650
299	17652
298	17654
297	17656
297	17658
296	17660
296	17662
295	17664
295	17666
294	17668
294	17670
294	17672
293	17674
293	17676
293	17678
292	17680
292	17682
291	17684
291	17686
291	17688
290	17690
290	17692
291	17694
290	17696
290	17698
290	17700
290	17702
290	17704
290	17707
290	17709
290	17711
290	17713
290	17715
291	17717
291	17719
291	17721
291	17723
291	17725
291	17727
291	17729
291	17731
291	17733
291	17735
292	17737
292	17739
292	17741
292	17743
293	17745
293	17747
294	17750
294	17752
294	17754
294	17756
294	17758
294	17760
294	17762
294	17764
294	17766
294	17768
294	17770
294	17772
294	17774
293	17776
293	17778
293	17780
293	17782
293	17784
293	17786
292	17788
292	17790
292	17792
292	17794
291	17796
291	17798
290	17800
290	17802
290	17804
290	17806
289	17808
289	17810
289	17812
289	17814
289	17816
289	17818
288	17820
289	17822
289	17824
289	17826
289	17828
288	17830
288	17832
287	17835
287	17837
286	17839
286	17841
286	17843
287	17845
289	17847
291	17849
295	17851
300	17853
307	17855
315	17857
324	17859
333	17861
343	17863
351	17865
359	17867
365	17869
370	17871
374	17873
376	17875
376	17878
375	17880
374	17882
372	17884
369	17886
367	17888
363	17890
360	17892
356	17894
352	17896
349	17898
345	17900
342	17902
338	17904
335	17906
331	17908
328	17910
325	17912
322	17914
319	17916
316	17918
314	17920
312	17922
309	17924
307	17926
304	17928
302	17930
300	17932
298	17934
296	17936
294	17938
293	17940
291	17942
290	17944
288	17946
287	17948
286	17950
284	17952
283	17954
282	17956
281	17958
280	17960
279	17963
278	17965
278	17967
278	17969
278	17971
277	17973
277	17975
277	17977
277	17979
277	17981
277	17983
277	17985
277	17987
278	17989
278	17991
278	17993
278	17995
278	17997
278	17999
278	18001
279	18003
279	18006
279	18008
280	18010
280	18012
281	18014
282	18016
282	18018
283	18020
284	18022
284	18024
285	18026
286	18028
287	18030
287	18032
289	18034
290	18036
291	18038
292	18040
294	18042
295	18044
297	18046
298	18048
299	18050
301	18052
302	18054
303	18056
305	18058
306	18060
307	18062
309	18064
310	18066
311	18068
312	18070
313	18072
315	18074
315	18076
316	18078
317	18080
318	18082
318	18084
319	18086
319	18088
320	18091
320	18093
321	18095
321	18097
321	18099
321	18101
321	18103
321	18105
321	18107
320	18109
320	18111
319	18113
319	18115
318	18117
317	18119
317	18121
316	18123
315	18125
314	18127
313	18129
312	18131
312	18134
311	18136
310	18138
310	18140
309	18142
308	18144
307	18146
307	18148
306	18150
305	18152
304	18154
303	18156
303	18158
302	18160
301	18162
301	18164
300	18166
300	18168
299	18170
299	18172
298	18174
298	18176
298	18178
297	18180
296	18182
296	18184
296	18186
295	18188
294	18190
293	18192
293	18194
293	18196
292	18198
292	18200
292	18202
292	18204
291	18206
291	18208
291	18210
290	18212
290	18214
290	18216
290	18219
290	18221
290	18223
290	18225
289	18227
289	18229
289	18231
289	18233
289	18235
289	18237
289	18239
289	18241
289	18243
289	18245
289	18247
290	18249
290	18251
290	18253
291	18255
292	18257
292	18259
293	18262
293	18264
293	18266
293	18268
294	18270
294	18272
294	18274
294	18276
294	18278
294	18280
294	18282
295	18284
294	18286
294	18288
294	18290
294	18292
295	18294
294	18296
294	18298
294	18300
293	18302
294	18304
293	18306
293	18308
293	18310
292	18312
291	18314
291	18316
291	18318
291	18320
290	18322
290	18324
289	18326
290	18328
289	18330
289	18332
289	18334
289	18336
289	18338
289	18340
289	18342
289	18344
289	18347
288	18349
288	18351
288	18353
288	18355
287	18357
286	18359
286	18361
286	18363
286	18365
288	18367
290	18369
293	18371
299	18373
305	18375
312	18377
321	18379
330	18381
340	18383
349	18385
357	18387
364	18390
369	18392
374	18394
376	18396
376	18398
376	18400
374	18402
372	18404
370	18406
367	18408
364	18410
361	18412
357	18414
354	18416
350	18418
346	18420
343	18422
339	18424
336	18426
332	18428
329	18430
328	18432
325	18434
321	18436
318	18438
315	18440
312	18442
310	18444
307	18446
305	18448
303	18450
301	18452
299	18454
297	18456
295	18458
294	18460
292	18462
290	18464
289	18466
288	18468
286	18470
285	18472
283	18475
283	18477
281	18479
281	18481
280	18483
280	18485
279	18487
279	18489
278	18491
278	18493
278	18495
278	18497
278	18499
278	18501
278	18503
278	18505
278	18507
278	18509
278	18511
278	18513
279	18515
279	18518
280	18520
280	18522
281	18524
281	18526
281	18528
281	18530
282	18532
282	18534
283	18536
283	18538
284	18540
285	18542
285	18544
286	18546
287	18548
288	18550
289	18552
289	18554
290	18556
292	18558
292	18560
293	18562
294	18564
296	18566
297	18568
299	18570
300	18572
302	18574
303	18576
305	18578
306	18580
307	18582
309	18584
310	18586
311	18588
312	18590
314	18592
315	18594
316	18596
317	18598
318	18600
319	18603
320	18605
321	18607
322	18609
322	18611
323	18613
323	18615
323	18617
323	18619
323	18621
323	18623
322	18625
322	18627
322	18629
321	18631
321	18633
320	18635
320	18637
319	18639
318	18641
317	18643
317	18646
316	18648
315	18650
314	18652
314	18654
312	18656
312	18658
311	18660
310	18662
309	18664
308	18666
307	18668
306	18670
306	18672
304	18674
304	18676
303	18678
302	18680
302	18682
301	18684
300	18686
300	18688
299	18690
299	18692
298	18694
298	18696
297	18698
296	18700
296	18702
295	18704
295	18706
294	18708
293	18710
293	18712
292	18714
292	18716
292	18718
291	18720
291	18722
290	18724
290	18726
289	18728
289	18731
289	18733
289	18735
289	18737
288	18739
288	18741
288	18743
288	18745
288	18747
288	18749
288	18751
288	18753
288	18755
288	18757
288	18759
288	18761
289	18763
289	18765
289	18767
289	18769
289	18771
289	18774
289	18776
289	18778
289	18780
289	18782
290	18784
290	18786
291	18788
291	18790
292	18792
292	18794
292	18796
293	18798
293	18800
293	18802
293	18804
293	18806
293	18808
293	18810
293	18812
293	18814
293	18816
293	18818
292	18820
292	18822
292	18824
292	18826
292	18828
291	18830
291	18832
291	18834
290	18836
290	18838
290	18840
289	18842
289	18844
289	18846
289	18848
289	18850
289	18852
289	18854
288	18856
288	18859
288	18861
288	18863
288	18865
288	18867
288	18869
288	18871
288	18873
288	18875
287	18877
287	18879
287	18881
286	18883
286	18885
287	18887
289	18889
291	18891
295	18893
300	18895
306	18897
313	18899
322	18902
330	18904
340	18906
349	18908
356	18910
362	18912
367	18914
371	18916
373	18918
373	18920
371	18922
369	18924
367	18926
364	18928
361	18930
358	18932
354	18934
351	18936
347	18938
344	18940
340	18942
338	18944
335	18946
332	18948
329	18950
326	18952
323	18954
320	18956
317	18958
315	18960
312	18962
310	18964
307	18966
305	18968
303	18970
301	18972
299	18974
297	18976
295	18978
294	18980
292	18982
291	18984
289	18987
288	18989
287	18991
286	18993
285	18995
284	18997
283	18999
282	19001
281	19003
281	19005
280	19007
280	19009
279	19011
278	19013
279	19015
278	19017
278	19019
278	19021
278	19023
278	19025
278	19027
278	19030
278	19032
279	19034
279	19036
279	19038
279	19040
279	19042
280	19044
280	19046
280	19048
281	19050
281	19052
282	19054
282	19056
283	19058
284	19060
284	19062
285	19064
286	19066
287	19068
288	19070
288	19072
289	19074
290	19076
291	19078
292	19080
293	19082
294	19084
296	19086
297	19088
299	19090
300	19092
301	19094
303	19096
304	19098
305	19100
307	19102
308	19104
310	19106
311	19108
312	19110
314	19112
315	19115
316	19117
317	19119
318	19121
320	19123
320	19125
321	19127
322	19129
322	19131
323	19133
323	19135
323	19137
323	19139
323	19141
323	19143
323	19145
323	19147
322	19149
322	19151
321	19153
321	19155
320	19158
320	19160
319	19162
318	19164
317	19166
317	19168
316	19170
315	19172
314	19174
314	19176
313	19178
312	19180
311	19182
310	19184
309	19186
309	19188
308	19190
307	19192
306	19194
305	19196
305	19198
304	19200
303	19202
303	19204
302	19206
301	19208
301	19210
300	19212
300	19214
299	19216
298	19218
297	19220
297	19222
297	19224
296	19226
295	19228
295	19230
294	19232
293	19234
293	19236
292	19238
292	19240
291	19243
291	19245
290	19247
290	19249
290	19251
289	19253
289	19255
289	19257
289	19259
289	19261
288	19263
288	19265
288	19267
288	19269
288	19271
288	19273
288	19275
288	19277
288	19279
288	19281
289	19283
289	19286
289	19288
289	19290
289	19292
289	19294
289	19296
289	19298
290	19300
290	19302
291	19304
291	19306
292	19308
292	19310
292	19312
293	19314
293	19316
293	19318
293	19320
293	19322
293	19324
293	19326
293	19328
293	19330
293	19332
293	19334
293	19336
293	19338
293	19340
292	19342
292	19344
292	19346
291	19348
291	19350
291	19352
291	19354
291	19356
290	19358
289	19360
289	19362
289	19364
289	19366
288	19368
288	19371
289	19373
288	19375
288	19377
288	19379
288	19381
288	19383
288	19385
288	19387
287	19389
287	19391
287	19393
287	19395
287	19397
286	19399
286	19401
286	19403
286	19405
286	19407
287	19409
289	19411
292	19414
296	19416
302	19418
308	19420
315	19422
324	19424
332	19426
341	19428
349	19430
356	19432
362	19434
367	19436
370	19438
371	19440
371	19442
369	19444
368	19446
365	19448
362	19450
359	19452
355	19454
354	19456
350	19458
346	19460
343	19462
339	19464
336	19466
332	19468
329	19470
326	19472
323	19474
320	19476
317	19478
314	19480
312	19482
309	19484
307	19486
305	19488
303	19490
301	19492
299	19494
297	19496
295	19499
293	19501
292	19503
290	19505
289	19507
288	19509
286	19511
285	19513
284	19515
283	19517
282	19519
281	19521
281	19523
280	19525
279	19527
279	19529
279	19531
279	19533
279	19535
279	19537
278	19539
278	19542
278	19544
278	19546
278	19548
278	19550
278	19552
278	19554
278	19556
278	19558
279	19560
279	19562
279	19564
279	19566
280	19568
280	19570
280	19572
281	19574
282	19576
282	19578
283	19580
283	19582
283	19584
284	19586
284	19588
285	19590
286	19592
287	19594
288	19596
289	19598
290	19600
291	19602
292	19604
293	19606
294	19608
295	19610
297	19612
298	19614
299	19616
301	19618
302	19620
304	19622
305	19624
306	19627
308	19629
309	19631
310	19633
312	19635
313	19637
314	19639
315	19641
316	19643
316	19645
317	19647
318	19649
319	19651
319	19653
320	19655
320	19657
320	19659
321	19661
321	19663
321	19665
321	19667
320	19670
320	19672
320	19674
319	19676
319	19678
318	19680
317	19682
317	19684
316	19686
315	19688
314	19690
314	19692
313	19694
312	19696
311	19698
311	19700
310	19702
309	19704
308	19706
308	19708
307	19710
307	19712
306	19714
305	19716
305	19718
304	19720
303	19722
303	19724
302	19726
302	19728
301	19730
300	19732
300	19734
299	19736
298	19738
298	19740
297	19742
297	19744
297	19746
296	19748
295	19750
295	19752
294	19755
294	19757
294	19759
293	19761
293	19763
292	19765
292	19767
292	19769
291	19771
291	19773
291	19775
290	19777
290	19779
290	19781
290	19783
289	19785
290	19787
289	19789
289	19791
289	19793
289	19795
289	19798
289	19800
289	19802
289	19804
289	19806
289	19808
290	19810
290	19812
290	19814
290	19816
290	19818
291	19820
291	19822
291	19824
292	19826
292	19828
292	19830
293	19832
293	19834
293	19836
294	19838
294	19840
294	19842
294	19844
294	19846
295	19848
295	19850
294	19852
294	19854
294	19856
294	19858
294	19860
294	19862
294	19864
294	19866
293	19868
293	19870
292	19872
292	19874
292	19876
292	19878
292	19880
291	19883
291	19885
290	19887
290	19889
290	19891
290	19893
290	19895
290	19897
290	19899
290	19901
290	19903
290	19905
290	19907
290	19909
289	19911
289	19913
289	19915
289	19917
289	19919
289	19921
288	19923
288	19926
287	19928
287	19930
286	19932
286	19934
287	19936
289	19938
293	19940
297	19942
302	19944
308	19946
316	19948
325	19950
334	19952
342	19954
350	19956
357	19958
363	19960
368	19962
372	19964
374	19966
374	19968
373	19970
372	19972
370	19974
368	19976
365	19978
362	19980
358	19982
355	19984
351	19986
348	19988
344	19990
341	19992
337	19994
334	19996
331	19998
328	20000
325	20002
322	20004
319	20006
316	20008
313	20011
310	20013
307	20015
305	20017
303	20019
301	20021
299	20023
297	20025
295	20027
294	20029
292	20031
290	20033
289	20035
288	20037
286	20039
285	20041
284	20043
283	20045
282	20047
281	20049
280	20051
279	20054
279	20056
278	20058
278	20060
277	20062
277	20064
277	20066
276	20068
276	20070
276	20072
276	20074
277	20076
277	20078
277	20080
277	20082
277	20084
277	20086
277	20088
277	20090
278	20092
278	20094
278	20096
279	20098
280	20100
280	20102
281	20104
281	20106
282	20108
282	20110
282	20112
283	20114
284	20116
284	20118
285	20120
286	20122
287	20124
288	20126
288	20128
289	20130
291	20132
292	20134
293	20136
294	20139
296	20141
297	20143
298	20145
300	20147
301	20149
302	20151
304	20153
305	20155
306	20157
308	20159
309	20161
310	20163
312	20165
313	20167
313	20169
314	20171
315	20173
315	20175
316	20177
317	20179
318	20182
318	20184
319	20186
319	20188
319	20190
319	20192
318	20194
319	20196
318	20198
318	20200
318	20202
318	20204
317	20206
317	20208
316	20210
316	20212
315	20214
315	20216
314	20218
313	20220
312	20222
312	20224
311	20226
310	20228
310	20230
309	20232
308	20234
308	20236
307	20238
306	20240
305	20242
305	20244
304	20246
303	20248
302	20250
302	20252
301	20254
301	20256
300	20258
300	20260
299	20262
299	20264
298	20267
298	20269
297	20271
297	20273
296	20275
296	20277
295	20279
295	20281
294	20283
294	20285
294	20287
294	20289
293	20291
293	20293
293	20295
293	20297
292	20299
292	20301
292	20303
291	20305
291	20307
290	20310
290	20312
289	20314
289	20316
289	20318
289	20320
289	20322
289	20324
290	20326
290	20328
290	20330
290	20332
290	20334
290	20336
290	20338
291	20340
291	20342
291	20344
291	20346
291	20348
292	20350
292	20352
292	20354
293	20356
293	20358
294	20360
294	20362
294	20364
295	20366
295	20368
296	20370
296	20372
296	20374
296	20376
296	20378
296	20380
295	20382
295	20384
295	20386
295	20388
295	20390
295	20392
295	20395
295	20397
294	20399
294	20401
294	20403
293	20405
293	20407
293	20409
292	20411
292	20413
292	20415
291	20417
291	20419
291	20421
291	20423
291	20425
291	20427
291	20429
291	20431
291	20433
290	20435
290	20438
290	20440
290	20442
290	20444
290	20446
289	20448
289	20450
289	20452
289	20454
288	20456
287	20458
287	20460
287	20462
288	20464
290	20466
293	20468
297	20470
303	20472
310	20474
318	20476
327	20478
332	20480
342	20482
350	20484
357	20486
364	20488
370	20490
373	20492
376	20494
376	20496
375	20498
374	20500
373	20502
370	20504
367	20506
364	20508
360	20510
356	20512
353	20514
349	20516
345	20518
342	20520
339	20523
335	20525
332	20527
329	20529
325	20531
322	20533
319	20535
316	20537
314	20539
311	20541
308	20543
306	20545
304	20547
302	20549
300	20551
298	20553
296	20555
294	20557
292	20559
291	20561
289	20563
288	20566
287	20568
285	20570
284	20572
283	20574
282	20576
281	20578
281	20580
280	20582
280	20584
279	20586
279	20588
278	20590
278	20592
277	20594
277	20596
277	20598
277	20600
276	20602
277	20604
277	20606
277	20608
277	20610
277	20612
277	20614
277	20616
277	20618
278	20620
278	20622
278	20624
278	20626
279	20628
279	20630
280	20632
281	20634
281	20636
282	20638
283	20640
284	20642
285	20644
285	20646
286	20648
287	20651
288	20653
289	20655
291	20657
292	20659
293	20661
295	20663
296	20665
297	20667
299	20669
300	20671
302	20673
303	20675
304	20677
306	20679
307	20681
308	20683
310	20685
311	20687
313	20689
314	20691
315	20694
316	20696
317	20698
318	20700
319	20702
319	20704
320	20706
320	20708
320	20710
321	20712
321	20714
321	20716
321	20718
321	20720
321	20722
321	20724
321	20726
320	20728
320	20730
319	20732
319	20734
319	20736
318	20738
317	20740
317	20742
316	20744
315	20746
314	20748
314	20750
313	20752
312	20754
311	20756
310	20758
310	20760
309	20762
308	20764
308	20766
307	20768
306	20770
305	20772
304	20774
303	20776
303	20779
302	20781
301	20783
300	20785
300	20787
299	20789
299	20791
298	20793
298	20795
297	20797
297	20799
296	20801
296	20803
295	20805
294	20807
294	20809
293	20811
293	20813
292	20815
292	20817
291	20819
291	20822
291	20824
290	20826
290	20828
289	20830
289	20832
289	20834
289	20836
288	20838
288	20840
288	20842
287	20844
287	20846
287	20848
287	20850
288	20852
287	20854
287	20856
288	20858
288	20860
288	20862
288	20864
288	20866
289	20868
288	20870
289	20872
289	20874
289	20876
289	20878
289	20880
289	20882
290	20884
290	20886
291	20888
292	20890
292	20892
293	20894
294	20896
294	20898
294	20900
295	20902
295	20904
295	20907
294	20909
295	20911
294	20913
294	20915
294	20917
294	20919
294	20921
294	20923
294	20925
293	20927
293	20929
293	20931
292	20933
292	20935
292	20937
291	20939
291	20941
290	20943
290	20945
290	20947
290	20950
290	20952
290	20954
290	20956
289	20958
290	20960
290	20962
289	20964
289	20966
289	20968
289	20970
289	20972
289	20974
288	20976
288	20978
288	20980
288	20982
287	20984
287	20986
286	20988
286	20990
286	20992
287	20994
288	20996
290	20998
294	21000
299	21002
305	21004
313	21006
321	21008
331	21010
340	21012
349	21014
356	21016
364	21018
369	21020
373	21022
375	21024
376	21026
375	21028
374	21030
372	21032
370	21035
367	21037
363	21039
360	21041
356	21043
352	21045
349	21047
345	21049
342	21051
339	21053
335	21055
332	21057
329	21059
325	21061
322	21063
319	21065
316	21067
314	21069
311	21071
308	21073
306	21075
304	21078
302	21080
299	21082
298	21084
296	21086
294	21088
292	21090
291	21092
289	21094
287	21096
286	21098
284	21100
283	21102
283	21104
282	21106
281	21108
281	21110
280	21112
280	21114
279	21116
279	21118
279	21120
278	21122
278	21124
278	21126
278	21128
277	21130
278	21132
278	21134
278	21136
278	21138
279	21140
278	21142
278	21144
278	21146
279	21148
279	21150
279	21152
279	21154
280	21156
280	21158
281	21160
281	21163
282	21165
282	21167
283	21169
284	21171
284	21173
286	21175
286	21177
287	21179
288	21181
289	21183
290	21185
291	21187
292	21189
293	21191
295	21193
296	21195
297	21197
299	21199
301	21201
302	21203
304	21206
305	21208
307	21210
308	21212
310	21214
311	21216
312	21218
314	21220
315	21222
316	21224
317	21226
318	21228
319	21230
320	21232
320	21234
321	21236
322	21238
322	21240
323	21242
323	21244
324	21246
324	21248
324	21250
324	21252
324	21254
324	21256
324	21258
323	21260
323	21262
323	21264
322	21266
321	21268
320	21270
319	21272
319	21274
318	21276
317	21278
316	21280
315	21282
314	21284
313	21286
312	21288
311	21291
311	21293
310	21295
308	21297
307	21299
306	21301
305	21303
305	21305
303	21307
303	21309
302	21311
301	21313
301	21315
300	21317
299	21319
299	21321
298	21323
297	21325
297	21327
296	21329
296	21331
295	21334
294	21336
293	21338
293	21340
293	21342
292	21344
292	21346
292	21348
291	21350
291	21352
290	21354
290	21356
290	21358
289	21360
289	21362
288	21364
288	21366
288	21368
287	21370
287	21372
287	21374
287	21376
287	21378
287	21380
287	21382
287	21384
287	21386
287	21388
288	21390
288	21392
288	21394
288	21396
288	21398
288	21400
288	21402
288	21404
288	21406
288	21408
288	21410
289	21412
289	21414
289	21416
290	21419
290	21421
291	21423
291	21425
292	21427
292	21429
293	21431
294	21433
294	21435
294	21437
294	21439
294	21441
294	21443
295	21445
294	21447
294	21449
294	21451
293	21453
293	21455
293	21457
292	21459
292	21462
292	21464
291	21466
291	21468
291	21470
291	21472
290	21474
290	21476
290	21478
290	21480
289	21482
289	21484
289	21486
288	21488
288	21490
288	21492
288	21494
288	21496
288	21498
288	21500
288	21502
288	21504
288	21506
288	21508
288	21510
288	21512
288	21514
287	21516
286	21518
286	21520
287	21522
288	21524
290	21526
294	21528
298	21530
304	21532
311	21534
318	21536
327	21538
336	21540
345	21542
353	21544
359	21547
365	21549
369	21551
371	21553
372	21555
370	21557
369	21559
366	21561
364	21563
361	21565
358	21567
354	21569
351	21571
347	21573
343	21575
340	21577
337	21579
334	21581
330	21583
327	21585
324	21587
321	21590
318	21592
315	21594
313	21596
310	21598
308	21600
306	21602
303	21604
301	21606
299	21608
298	21610
296	21612
294	21614
293	21616
291	21618
289	21620
288	21622
287	21624
286	21626
285	21628
284	21630
283	21632
283	21634
282	21636
281	21638
281	21640
280	21642
279	21644
279	21646
278	21648
278	21650
278	21652
278	21654
278	21656
278	21658
278	21660
278	21662
278	21664
278	21666
278	21668
278	21670
278	21672
279	21675
279	21677
278	21679
279	21681
279	21683
279	21685
280	21687
280	21689
281	21691
281	21693
282	21695
283	21697
284	21699
285	21701
286	21703
286	21705
287	21707
288	21709
289	21711
290	21713
292	21715
293	21718
294	21720
295	21722
297	21724
298	21726
300	21728
301	21730
303	21732
304	21734
305	21736
307	21738
308	21740
309	21742
311	21744
312	21746
313	21748
314	21750
315	21752
316	21754
317	21756
318	21758
319	21760
320	21762
320	21764
321	21766
321	21768
322	21770
323	21772
323	21774
323	21776
323	21778
323	21780
324	21782
323	21784
323	21786
323	21788
322	21790
322	21792
321	21794
321	21796
320	21798
319	21800
319	21803
318	21805
317	21807
316	21809
316	21811
315	21813
314	21815
313	21817
312	21819
311	21821
310	21823
309	21825
309	21827
307	21829
306	21831
306	21833
305	21835
303	21837
302	21839
302	21841
301	21843
300	21846
299	21848
299	21850
298	21852
297	21854
296	21856
296	21858
295	21860
295	21862
294	21864
293	21866
293	21868
293	21870
292	21872
292	21874
292	21876
291	21878
291	21880
290	21882
290	21884
289	21886
289	21888
288	21890
288	21892
288	21894
288	21896
287	21898
286	21900
287	21902
286	21904
286	21906
287	21908
287	21910
287	21912
287	21914
287	21916
287	21918
287	21920
287	21922
287	21924
287	21926
287	21928
287	21931
287	21933
288	21935
288	21937
288	21939
289	21941
289	21943
290	21945
291	21947
291	21949
292	21951
292	21953
292	21955
292	21957
292	21959
293	21961
293	21963
292	21965
293	21967
292	21969
292	21971
292	21974
292	21976
292	21978
292	21980
292	21982
291	21984
291	21986
291	21988
291	21990
291	21992
290	21994
289	21996
289	21998
289	22000
289	22002
288	22004
288	22006
288	22008
288	22010
287	22012
287	22014
287	22016
287	22018
287	22020
287	22022
287	22024
287	22026
287	22028
287	22030
286	22032
286	22034
286	22036
286	22038
285	22040
285	22042
285	22044
285	22046
287	22048
289	22050
292	22052
296	22054
301	22056
308	22059
315	22061
323	22063
332	22065
341	22067
349	22069
355	22071
361	22073
366	22075
369	22077
370	22079
369	22081
367	22083
365	22085
363	22087
360	22089
357	22091
353	22093
350	22095
346	22097
343	22099
339	22102
336	22104
333	22106
329	22108
326	22110
324	22112
320	22114
318	22116
315	22118
312	22120
310	22122
307	22124
305	22126
303	22128
300	22130
299	22132
296	22134
295	22136
293	22138
291	22140
290	22142
290	22144
288	22146
287	22148
286	22150
284	22152
284	22154
283	22156
282	22158
281	22160
281	22162
280	22164
280	22166
279	22168
279	22170
279	22172
278	22174
278	22176
278	22178
278	22180
278	22182
278	22184
277	22187
277	22189
278	22191
278	22193
278	22195
278	22197
278	22199
278	22201
279	22203
279	22205
279	22207
280	22209
280	22211
280	22213
281	22215
281	22217
282	22219
282	22221
283	22223
283	22225
284	22227
285	22230
285	22232
287	22234
288	22236
289	22238
290	22240
291	22242
292	22244
293	22246
294	22248
296	22250
297	22252
299	22254
300	22256
301	22258
303	22260
304	22262
306	22264
307	22266
308	22268
310	22270
311	22272
311	22274
313	22276
314	22278
314	22280
315	22282
316	22284
317	22286
318	22288
318	22290
319	22292
319	22294
319	22296
320	22298
320	22300
320	22302
320	22304
320	22306
320	22308
320	22310
320	22312
320	22315
320	22317
319	22319
319	22321
318	22323
318	22325
317	22327
317	22329
316	22331
316	22333
315	22335
315	22337
314	22339
313	22341
312	22343
312	22345
310	22347
310	22349
309	22351
308	22353
307	22355
306	22358
305	22360
305	22362
304	22364
303	22366
303	22368
302	22370
301	22372
301	22374
300	22376
300	22378
299	22380
298	22382
298	22384
297	22386
296	22388
296	22390
295	22392
294	22394
293	22396
293	22398
292	22400
292	22402
292	22404
292	22406
291	22408
291	22410
290	22412
290	22414
289	22416
289	22418
289	22420
288	22422
288	22424
288	22426
289	22428
289	22430
289	22432
289	22434
288	22436
288	22438
288	22440
288	22443
289	22445
289	22447
289	22449
290	22451
291	22453
291	22455
291	22457
292	22459
293	22461
293	22463
294	22465
294	22467
295	22469
295	22471
295	22473
295	22475
296	22477
296	22479
296	22481
297	22483
297	22486
296	22488
297	22490
296	22492
296	22494
296	22496
296	22498
296	22500
295	22502
295	22504
294	22506
294	22508
293	22510
293	22512
292	22514
292	22516
292	22518
291	22520
290	22522
290	22524
290	22526
290	22528
290	22530
290	22532
290	22534
290	22536
289	22538
290	22540
290	22542
290	22544
290	22546
290	22548
290	22550
290	22552
290	22554
289	22556
289	22558
288	22560
288	22562
287	22564
287	22566
288	22568
289	22571
291	22573
294	22575
298	22577
304	22579
310	22581
318	22583
327	22585
336	22587
345	22589
353	22591
360	22593
366	22595
371	22597
374	22599
375	22601
374	22603
373	22605
371	22607
368	22609
365	22611
361	22614
357	22616
354	22618
350	22620
346	22622
343	22624
339	22626
336	22628
333	22630
329	22632
327	22634
323	22636
320	22638
318	22640
315	22642
312	22644
310	22646
308	22648
305	22650
303	22652
301	22654
300	22656
298	22658
296	22660
294	22662
293	22664
291	22666
289	22668
288	22670
287	22672
286	22674
285	22676
284	22678
283	22680
282	22682
282	22684
281	22686
280	22688
280	22690
280	22692
279	22694
279	22696
278	22699
278	22701
278	22703
277	22705
277	22707
277	22709
277	22711
277	22713
277	22715
278	22717
278	22719
278	22721
279	22723
279	22725
279	22727
279	22729
279	22731
280	22733
280	22735
281	22737
282	22739
282	22742
283	22744
283	22746
284	22748
285	22750
286	22752
287	22754
287	22756
288	22758
289	22760
289	22762
291	22764
292	22766
293	22768
295	22770
297	22772
298	22774
299	22776
300	22778
302	22780
304	22782
304	22784
306	22786
307	22788
308	22790
309	22792
311	22794
312	22796
313	22798
314	22800
315	22802
316	22804
317	22806
318	22808
319	22810
320	22812
321	22814
322	22816
322	22818
322	22820
322	22822
322	22824
323	22827
323	22829
322	22831
322	22833
322	22835
322	22837
321	22839
321	22841
321	22843
320	22845
319	22847
319	22849
318	22851
317	22853
316	22855
316	22857
315	22859
314	22861
313	22863
312	22865
311	22867
311	22870
310	22872
308	22874
308	22876
306	22878
306	22880
305	22882
304	22884
303	22886
302	22888
301	22890
300	22892
299	22894
298	22896
297	22898
297	22900
296	22902
296	22904
295	22906
295	22908
294	22910
294	22912
294	22914
293	22916
293	22918
292	22920
292	22922
291	22924
291	22926
291	22928
290	22930
290	22932
289	22934
289	22936
288	22938
289	22940
288	22942
288	22944
288	22946
288	22948
289	22950
288	22952
288	22955
289	22957
289	22959
289	22961
288	22963
288	22965
288	22967
288	22969
288	22971
288	22973
288	22975
289	22977
289	22979
290	22981
290	22983
291	22985
291	22987
292	22989
292	22991
292	22993
292	22995
293	22998
293	23000
293	23002
293	23004
294	23006
294	23008
293	23010
294	23012
293	23014
293	23016
293	23018
292	23020
292	23022
291	23024
291	23026
291	23028
291	23030
290	23032
289	23034
289	23036
288	23038
288	23040
288	23042
287	23044
287	23046
287	23048
287	23050
287	23052
287	23054
287	23056
287	23058
287	23060
287	23062
286	23064
287	23066
286	23068
286	23070
286	23072
286	23074
285	23076
285	23078
285	23080
285	23083
286	23085
288	23087
290	23089
293	23091
297	23093
304	23095
310	23097
318	23099
327	23101
336	23103
345	23105
353	23107
360	23109
366	23111
370	23113
372	23115
373	23117
372	23119
369	23121
367	23123
365	23126
361	23128
358	23130
354	23132
351	23134
347	23136
343	23138
340	23140
337	23142
333	23144
330	23146
327	23148
324	23150
321	23152
319	23154
317	23156
314	23158
312	23160
309	23162
307	23164
305	23166
304	23168
302	23170
300	23172
298	23174
297	23176
295	23178
293	23180
292	23182
291	23184
289	23186
288	23188
287	23190
285	23192
284	23194
283	23196
283	23198
282	23200
281	23202
280	23204
280	23206
280	23208
280	23211
280	23213
280	23215
280	23217
279	23219
279	23221
280	23223
280	23225
280	23227
280	23229
280	23231
281	23233
281	23235
281	23237
281	23239
281	23241
282	23243
282	23245
283	23247
284	23249
284	23251
285	23254
286	23256
286	23258
287	23260
288	23262
288	23264
289	23266
290	23268
291	23270
291	23272
292	23274
292	23276
293	23278
294	23280
295	23282
297	23284
298	23286
300	23288
301	23290
303	23292
304	23294
305	23296
306	23298
308	23300
309	23302
311	23304
313	23306
314	23308
315	23310
316	23312
317	23314
318	23316
320	23318
320	23320
321	23322
323	23324
323	23326
324	23328
324	23330
324	23332
325	23334
325	23336
325	23339
325	23341
325	23343
325	23345
325	23347
325	23349
325	23351
325	23353
324	23355
323	23357
322	23359
321	23361
321	23363
320	23365
319	23367
319	23369
318	23371
317	23373
317	23375
316	23377
315	23379
314	23382
313	23384
312	23386
312	23388
311	23390
310	23392
309	23394
308	23396
308	23398
307	23400
306	23402
305	23404
304	23406
303	23408
302	23410
301	23412
300	23414
299	23416
299	23418
297	23420
297	23422
296	23424
295	23426
294	23428
294	23430
293	23432
293	23434
293	23436
293	23438
292	23440
292	23442
292	23444
292	23446
292	23448
292	23450
291	23452
291	23454
291	23456
292	23458
291	23460
292	23462
292	23464
292	23467
292	23469
292	23471
292	23473
292	23475
292	23477
292	23479
293	23481
293	23483
293	23485
294	23487
294	23489
294	23491
293	23493
294	23495
294	23497
294	23499
294	23501
294	23503
294	23505
294	23507
295	23510
295	23512
295	23514
295	23516
294	23518
294	23520
294	23522
294	23524
293	23526
293	23528
293	23530
292	23532
291	23534
291	23536
290	23538
290	23540
289	23542
288	23544
288	23546
288	23548
287	23550
287	23552
287	23554
287	23556
287	23558
287	23560
287	23562
287	23564
287	23566
286	23568
286	23570
286	23572
286	23574
287	23576
286	23578
286	23580
286	23582
285	23584
285	23586
284	23588
285	23590
286	23592
288	23595
292	23597
296	23599
302	23601
309	23603
318	23605
327	23607
336	23609
345	23611
352	23613
359	23615
364	23617
368	23619
370	23621
370	23623
368	23625
366	23627
364	23629
361	23631
358	23633
355	23635
352	23638
349	23640
345	23642
342	23644
339	23646
336	23648
333	23650
330	23652
327	23654
325	23656
322	23658
319	23660
316	23662
314	23664
311	23666
309	23668
306	23670
304	23672
302	23674
300	23676
298	23678
297	23680
296	23682
295	23684
293	23686
292	23688
290	23690
288	23692
287	23694
286	23696
284	23698
284	23700
282	23702
281	23704
280	23706
280	23708
280	23710
279	23712
278	23714
278	23716
278	23718
277	23720
277	23723
277	23725
277	23727
277	23729
277	23731
277	23733
278	23735
278	23737
278	23739
279	23741
279	23743
280	23745
280	23747
280	23749
281	23751
281	23753
282	23755
282	23757
283	23759
283	23761
284	23763
284	23766
285	23768
286	23770
287	23772
288	23774
289	23776
290	23778
291	23780
292	23782
293	23784
294	23786
295	23788
297	23790
298	23792
299	23794
301	23796
302	23798
304	23800
305	23802
307	23804
308	23806
309	23808
310	23810
312	23812
313	23814
315	23816
316	23818
317	23820
318	23822
319	23824
320	23826
321	23828
321	23830
321	23832
322	23834
322	23836
322	23838
322	23840
322	23842
322	23844
323	23846
323	23848
323	23851
323	23853
323	23855
323	23857
322	23859
322	23861
321	23863
320	23865
320	23867
319	23869
319	23871
318	23873
317	23875
316	23877
316	23879
315	23881
313	23883
312	23885
312	23887
311	23889
309	23891
308	23894
308	23896
307	23898
306	23900
305	23902
304	23904
303	23906
303	23908
302	23910
301	23912
301	23914
300	23916
299	23918
298	23920
297	23922
297	23924
296	23926
295	23928
295	23930
294	23932
293	23934
293	23936
293	23938
292	23940
292	23942
292	23944
291	23946
291	23948
291	23950
290	23952
290	23954
290	23956
290	23958
290	23960
290	23962
290	23964
289	23966
289	23968
289	23970
289	23972
289	23974
289	23976
289	23979
289	23981
289	23983
290	23985
290	23987
291	23989
291	23991
292	23993
292	23995
292	23997
292	23999
292	24001
292	24003
292	24005
292	24007
292	24009
292	24011
291	24013
291	24015
291	24017
291	24019
290	24022
290	24024
289	24026
289	24028
289	24030
288	24032
288	24034
288	24036
287	24038
287	24040
286	24042
286	24044
285	24046
285	24048
284	24050
284	24052
284	24054
284	24056
284	24058
284	24060
284	24062
284	24064
284	24066
285	24068
285	24070
285	24072
285	24074
284	24076
284	24078
283	24080
283	24082
282	24084
282	24086
282	24088
282	24090
284	24092
286	24094
289	24096
293	24098
299	24100
307	24102
315	24104
324	24107
334	24109
343	24111
351	24113
358	24115
363	24117
367	24119
369	24121
370	24123
368	24125
367	24127
365	24129
363	24131
360	24133
357	24135
354	24137
351	24139
347	24141
344	24143
340	24145
337	24147
334	24150
331	24152
327	24154
325	24156
322	24158
318	24160
316	24162
313	24164
310	24166
307	24168
305	24170
303	24172
300	24174
298	24176
296	24178
294	24180
292	24182
290	24184
288	24186
287	24188
286	24190
285	24192
284	24194
283	24196
282	24198
282	24200
281	24202
280	24204
280	24206
279	24208
279	24210
278	24212
278	24214
277	24216
277	24218
277	24220
277	24222
277	24224
277	24226
277	24228
277	24230
277	24232
277	24235
277	24237
277	24239
277	24241
277	24243
277	24245
277	24247
278	24249
278	24251
279	24253
279	24255
280	24257
281	24259
282	24261
283	24263
283	24265
284	24267
285	24269
286	24271
287	24273
288	24275
289	24278
291	24280
292	24282
293	24284
294	24286
295	24288
296	24290
298	24292
299	24294
301	24296
302	24298
303	24300
304	24302
306	24304
307	24306
308	24308
309	24310
310	24312
311	24314
312	24316
312	24318
313	24320
314	24322
315	24324
316	24326
317	24328
318	24330
319	24332
319	24334
320	24336
321	24338
321	24340
322	24342
322	24344
322	24346
322	24348
323	24350
323	24352
323	24354
323	24356
323	24358
322	24360
322	24363
321	24365
320	24367
320	24369
319	24371
319	24373
318	24375
318	24377
317	24379
316	24381
315	24383
314	24385
312	24387
311	24389
310	24391
309	24393
309	24395
307	24397
307	24399
306	24401
305	24403
304	24406
303	24408
302	24410
302	24412
301	24414
300	24416
299	24418
299	24420
299	24422
298	24424
297	24426
296	24428
296	24430
295	24432
295	24434
295	24436
294	24438
294	24440
293	24442
293	24444
292	24446
292	24448
292	24450
292	24452
292	24454
293	24456
293	24458
293	24460
292	24462
293	24464
293	24466
293	24468
292	24470
292	24472
292	24474
292	24476
292	24478
292	24480
293	24482
293	24484
293	24486
294	24488
294	24491
294	24493
294	24495
294	24497
294	24499
294	24501
293	24503
294	24505
293	24507
293	24509
293	24511
293	24513
293	24515
292	24517
292	24519
292	24521
291	24523
291	24525
290	24527
290	24529
290	24531
289	24534
289	24536
288	24538
288	24540
287	24542
287	24544
287	24546
287	24548
287	24550
287	24552
286	24554
286	24556
286	24558
286	24560
287	24562
286	24564
286	24566
286	24568
286	24570
285	24572
285	24574
284	24576
284	24578
284	24580
284	24582
285	24584
287	24586
290	24588
294	24590
298	24592
304	24594
311	24596
320	24598
328	24600
337	24602
345	24604
352	24606
358	24608
362	24610
364	24612
366	24614
365	24616
364	24619
362	24621
360	24623
357	24625
354	24627
351	24629
347	24631
343	24633
340	24635
337	24637
334	24639
331	24641
328	24643
325	24645
322	24647
319	24649
316	24651
313	24653
311	24655
308	24657
306	24659
304	24662
303	24664
300	24666
298	24668
297	24670
295	24672
294	24674
292	24676
291	24678
289	24680
288	24682
287	24684
286	24686
285	24688
283	24690
283	24692
282	24694
282	24696
281	24698
280	24700
280	24702
280	24704
280	24706
279	24708
279	24710
279	24712
279	24714
279	24716
279	24718
279	24720
279	24722
279	24724
279	24726
280	24728
280	24730
280	24732
281	24734
281	24736
282	24738
282	24740
282	24742
283	24744
283	24747
283	24749
284	24751
284	24753
285	24755
285	24757
286	24759
287	24761
287	24763
288	24765
289	24767
290	24769
291	24771
291	24773
292	24775
293	24777
294	24779
295	24781
296	24783
298	24785
299	24787
300	24790
302	24792
303	24794
304	24796
306	24798
307	24800
308	24802
309	24804
311	24806
312	24808
313	24810
314	24812
315	24814
316	24816
317	24818
318	24820
319	24822
319	24824
320	24826
320	24828
320	24830
321	24832
321	24834
321	24836
321	24838
321	24840
321	24842
321	24844
321	24846
321	24848
320	24850
320	24852
320	24854
319	24856
319	24858
318	24860
318	24862
317	24864
316	24866
316	24868
315	24870
314	24872
313	24875
312	24877
312	24879
311	24881
310	24883
309	24885
308	24887
308	24889
307	24891
306	24893
306	24895
305	24897
304	24899
303	24901
303	24903
302	24905
301	24907
301	24909
300	24911
299	24913
299	24915
299	24918
298	24920
297	24922
297	24924
296	24926
295	24928
295	24930
294	24932
294	24934
294	24936
294	24938
294	24940
294	24942
293	24944
293	24946
294	24948
294	24950
293	24952
294	24954
294	24956
293	24958
293	24960
294	24962
293	24964
294	24966
294	24968
294	24970
295	24972
294	24974
295	24976
295	24978
295	24980
296	24982
296	24984
296	24986
296	24988
296	24990
295	24992
295	24994
295	24996
295	24998
294	25000
294	25003
294	25005
293	25007
293	25009
293	25011
292	25013
291	25015
290	25017
290	25019
289	25021
289	25023
289	25025
288	25027
288	25029
288	25031
288	25033
288	25035
288	25037
288	25039
288	25041
288	25043
288	25046
288	25048
287	25050
287	25052
287	25054
287	25056
288	25058
287	25060
287	25062
287	25064
286	25066
285	25068
285	25070
285	25072
286	25074
288	25076
291	25078
294	25080
299	25082
304	25084
311	25086
315	25088
323	25090
331	25092
339	25094
346	25096
352	25098
356	25100
360	25102
362	25104
362	25106
361	25108
359	25110
357	25112
354	25114
350	25116
347	25118
343	25120
340	25122
337	25124
335	25126
332	25128
329	25131
327	25133
324	25135
322	25137
319	25139
316	25141
314	25143
312	25145
310	25147
308	25149
306	25151
304	25153
302	25155
301	25157
299	25159
298	25161
296	25163
295	25165
293	25167
291	25169
290	25171
289	25174
288	25176
287	25178
286	25180
285	25182
284	25184
283	25186
283	25188
283	25190
283	25192
283	25194
282	25196
280	25198
279	25200
278	25202
278	25204
278	25206
278	25208
279	25210
280	25212
281	25214
281	25216
281	25218
281	25220
280	25222
280	25224
281	25226
282	25228
283	25230
284	25232
284	25234
285	25236
286	25238
286	25240
286	25242
287	25244
287	25246
288	25248
289	25250
290	25252
290	25254
291	25256
292	25259
293	25261
293	25263
294	25265
295	25267
296	25269
297	25271
297	25273
299	25275
300	25277
301	25279
303	25281
304	25283
306	25285
307	25287
309	25289
310	25291
311	25293
311	25295
312	25297
314	25299
315	25302
316	25304
318	25306
318	25308
319	25310
320	25312
320	25314
321	25316
321	25318
322	25320
322	25322
322	25324
322	25326
322	25328
322	25330
322	25332
322	25334
322	25336
322	25338
322	25340
321	25342
320	25344
320	25346
319	25348
319	25350
319	25352
318	25354
317	25356
317	25358
316	25360
315	25362
315	25364
314	25366
313	25368
313	25370
312	25372
311	25374
310	25376
309	25378
308	25380
307	25382
306	25384
306	25387
305	25389
304	25391
303	25393
302	25395
301	25397
300	25399
299	25401
298	25403
298	25405
297	25407
297	25409
296	25411
296	25413
296	25415
295	25417
295	25419
294	25421
294	25423
293	25425
293	25427
293	25430
293	25432
293	25434
293	25436
293	25438
293	25440
294	25442
294	25444
293	25446
293	25448
293	25450
293	25452
293	25454
293	25456
293	25458
293	25460
293	25462
293	25464
293	25466
294	25468
294	25470
294	25472
295	25474
295	25476
295	25478
295	25480
295	25482
294	25484
293	25486
293	25488
292	25490
292	25492
