309	13666
307	13668
306	13670
304	13672
303	13674
301	13676
299	13678
298	13680
297	13682
296	13684
295	13686
294	13688
293	13690
292	13692
291	13694
291	13696
290	13698
289	13700
288	13702
288	13704
287	13706
287	13708
287	13710
286	13712
286	13714
286	13716
285	13718
285	13720
285	13722
285	13724
285	13726
285	13728
285	13730
285	13732
285	13734
285	13736
285	13739
285	13741
285	13743
285	13745
286	13747
286	13749
286	13751
287	13753
287	13755
287	13757
287	13759
288	13761
288	13763
288	13765
289	13767
289	13769
290	13771
290	13773
291	13775
292	13777
292	13779
293	13782
294	13784
294	13786
295	13788
296	13790
297	13792
297	13794
298	13796
299	13798
300	13800
301	13802
302	13804
303	13806
304	13808
306	13810
307	13812
308	13814
309	13816
310	13818
311	13820
313	13822
313	13824
314	13826
315	13828
317	13830
318	13832
319	13834
320	13836
321	13838
321	13840
322	13842
323	13844
324	13846
325	13848
325	13850
326	13852
326	13854
327	13856
327	13858
328	13860
327	13862
327	13864
327	13867
327	13869
327	13871
326	13873
326	13875
325	13877
325	13879
324	13881
323	13883
322	13885
321	13887
320	13889
318	13891
317	13893
316	13895
315	13897
313	13899
312	13901
311	13903
309	13905
308	13907
306	13910
305	13912
304	13914
302	13916
301	13918
300	13920
298	13922
297	13924
296	13926
295	13928
294	13930
293	13932
292	13934
291	13936
290	13938
290	13940
289	13942
288	13944
287	13946
287	13948
286	13950
286	13952
286	13954
285	13956
285	13958
285	13960
284	13962
284	13964
283	13966
283	13968
283	13970
283	13972
283	13974
282	13976
283	13978
282	13980
283	13982
282	13984
282	13986
282	13988
282	13990
282	13992
282	13995
282	13997
282	13999
282	14001
282	14003
282	14005
283	14007
283	14009
283	14011
283	14013
283	14015
283	14017
283	14019
283	14021
283	14023
283	14025
283	14027
283	14029
283	14031
284	14033
284	14035
284	14038
284	14040
284	14042
284	14044
284	14046
284	14048
284	14050
285	14052
285	14054
285	14056
285	14058
285	14060
285	14062
285	14064
285	14066
286	14068
286	14070
286	14072
286	14074
286	14076
286	14078
286	14080
287	14082
287	14084
287	14086
287	14088
287	14090
287	14092
287	14094
288	14096
288	14098
288	14100
288	14102
288	14104
288	14106
288	14108
288	14110
289	14112
289	14114
289	14116
289	14118
289	14120
290	14123
290	14125
290	14127
291	14129
291	14131
292	14133
292	14135
293	14137
293	14139
293	14141
294	14143
294	14145
295	14147
295	14149
295	14151
295	14153
296	14155
296	14157
297	14159
297	14161
298	14163
299	14166
299	14168
299	14170
300	14172
300	14174
301	14176
301	14178
301	14180
301	14182
301	14184
302	14186
302	14188
302	14190
302	14192
302	14194
302	14196
302	14198
302	14200
302	14202
302	14204
301	14206
301	14208
301	14210
301	14212
301	14214
300	14216
300	14218
300	14220
300	14222
299	14224
299	14226
298	14228
298	14230
298	14232
298	14234
297	14236
297	14238
297	14240
297	14242
297	14244
297	14246
296	14248
296	14251
296	14253
296	14255
296	14257
296	14259
296	14261
296	14263
295	14265
295	14267
294	14269
294	14271
294	14273
293	14275
293	14277
293	14279
295	14281
297	14283
299	14285
303	14287
308	14289
315	14291
321	14294
329	14296
337	14298
346	14300
354	14302
361	14304
367	14306
371	14308
375	14310
377	14312
378	14314
377	14316
377	14318
376	14320
374	14322
372	14324
369	14326
366	14328
363	14330
359	14332
356	14334
354	14336
350	14338
347	14340
344	14342
341	14344
338	14346
335	14348
331	14350
329	14352
326	14354
323	14356
321	14358
318	14360
316	14362
313	14364
312	14366
309	14368
308	14370
306	14372
304	14374
302	14376
301	14379
299	14381
297	14383
296	14385
295	14387
294	14389
292	14391
292	14393
291	14395
289	14397
289	14399
288	14401
287	14403
287	14405
286	14407
285	14409
285	14411
284	14413
284	14415
284	14417
284	14419
283	14422
283	14424
283	14426
283	14428
283	14430
283	14432
283	14434
283	14436
283	14438
283	14440
283	14442
283	14444
283	14446
283	14448
283	14450
284	14452
284	14454
285	14456
285	14458
285	14460
285	14462
286	14464
286	14466
286	14468
287	14470
288	14472
288	14474
289	14476
289	14478
290	14480
291	14482
291	14484
292	14486
293	14488
293	14490
294	14492
295	14494
296	14496
297	14498
298	14500
299	14502
300	14504
301	14507
302	14509
304	14511
305	14513
306	14515
307	14517
308	14519
310	14521
311	14523
312	14525
313	14527
314	14529
316	14531
317	14533
318	14535
319	14537
320	14539
321	14541
322	14543
322	14545
323	14547
324	14550
324	14552
325	14554
325	14556
326	14558
326	14560
326	14562
327	14564
326	14566
326	14568
326	14570
326	14572
325	14574
325	14576
324	14578
323	14580
323	14582
322	14584
321	14586
319	14588
318	14590
318	14592
316	14594
315	14596
314	14598
313	14600
311	14602
310	14604
308	14606
307	14608
306	14610
304	14612
303	14614
302	14616
300	14618
299	14620
298	14622
296	14624
296	14626
294	14628
293	14630
292	14632
291	14635
291	14637
290	14639
289	14641
288	14643
288	14645
287	14647
286	14649
286	14651
285	14653
285	14655
284	14657
284	14659
284	14661
283	14663
283	14665
283	14667
283	14669
283	14671
282	14673
282	14675
282	14678
282	14680
282	14682
281	14684
281	14686
282	14688
282	14690
282	14692
281	14694
281	14696
281	14698
282	14700
282	14702
282	14704
282	14706
282	14708
282	14710
282	14712
282	14714
282	14716
282	14718
282	14720
282	14722
283	14724
282	14726
283	14728
283	14730
283	14732
283	14734
283	14736
283	14738
283	14740
283	14742
284	14744
284	14746
284	14748
284	14750
284	14752
284	14754
284	14756
284	14758
285	14760
285	14763
285	14765
285	14767
285	14769
285	14771
286	14773
286	14775
286	14777
286	14779
286	14781
286	14783
286	14785
286	14787
287	14789
287	14791
287	14793
287	14795
287	14797
288	14799
288	14801
288	14803
288	14806
288	14808
288	14810
289	14812
289	14814
289	14816
289	14818
290	14820
290	14822
291	14824
291	14826
291	14828
292	14830
292	14832
293	14834
293	14836
294	14838
294	14840
294	14842
295	14844
295	14846
295	14848
295	14850
296	14852
297	14854
297	14856
297	14858
298	14860
298	14862
299	14864
299	14866
300	14868
300	14870
301	14872
301	14874
301	14876
301	14878
302	14880
302	14882
302	14884
302	14886
302	14888
302	14891
302	14893
302	14895
302	14897
302	14899
301	14901
301	14903
301	14905
301	14907
301	14909
300	14911
300	14913
300	14915
299	14917
299	14919
299	14921
298	14923
298	14925
298	14927
297	14929
297	14931
297	14934
297	14936
297	14938
297	14940
297	14942
296	14944
296	14946
296	14948
296	14950
296	14952
296	14954
296	14956
295	14958
295	14960
295	14962
294	14964
294	14966
293	14968
293	14970
293	14972
294	14974
295	14976
297	14978
300	14980
304	14982
309	14984
315	14986
322	14988
330	14990
338	14992
347	14994
355	14996
362	14998
368	15000
373	15002
377	15004
379	15006
379	15008
379	15010
379	15012
378	15014
376	15016
374	15019
371	15021
368	15023
365	15025
361	15027
357	15029
354	15031
351	15033
347	15035
344	15037
341	15039
338	15041
334	15043
331	15045
329	15047
326	15049
323	15051
320	15053
318	15055
316	15057
313	15059
311	15062
309	15064
307	15066
305	15068
303	15070
301	15072
300	15074
298	15076
297	15078
296	15080
294	15082
293	15084
292	15086
291	15088
290	15090
289	15092
288	15094
288	15096
287	15098
286	15100
285	15102
285	15104
285	15106
284	15108
284	15110
283	15112
283	15114
283	15116
283	15118
282	15120
282	15122
282	15124
282	15126
282	15128
282	15130
282	15132
282	15134
282	15136
282	15138
282	15140
282	15142
283	15144
283	15147
283	15149
283	15151
284	15153
284	15155
285	15157
285	15159
285	15161
286	15163
286	15165
287	15167
287	15169
288	15171
289	15173
289	15175
290	15177
291	15179
291	15181
292	15183
293	15185
294	15187
295	15190
296	15192
297	15194
298	15196
299	15198
300	15200
301	15202
302	15204
303	15206
305	15208
306	15210
307	15212
308	15214
309	15216
311	15218
312	15220
313	15222
314	15224
315	15226
316	15228
317	15230
318	15232
319	15234
320	15236
321	15238
322	15240
322	15242
323	15244
324	15246
324	15248
325	15250
325	15252
325	15254
326	15256
326	15258
326	15260
326	15262
326	15264
326	15266
325	15268
325	15270
324	15272
323	15275
322	15277
321	15279
320	15281
319	15283
318	15285
317	15287
316	15289
314	15291
313	15293
312	15295
310	15297
309	15299
307	15301
306	15303
305	15305
303	15307
302	15309
301	15311
299	15313
298	15315
297	15318
296	15320
295	15322
294	15324
293	15326
292	15328
291	15330
290	15332
289	15334
289	15336
288	15338
287	15340
287	15342
286	15344
286	15346
285	15348
285	15350
285	15352
284	15354
284	15356
284	15358
283	15360
283	15362
283	15364
283	15366
283	15368
282	15370
282	15372
282	15374
282	15376
282	15378
282	15380
282	15382
282	15384
282	15386
282	15388
282	15390
282	15392
282	15394
282	15396
282	15398
282	15400
282	15403
282	15405
283	15407
283	15409
283	15411
283	15413
283	15415
283	15417
283	15419
283	15421
283	15423
283	15425
283	15427
283	15429
284	15431
284	15433
284	15435
284	15437
284	15439
284	15441
284	15443
284	15446
284	15448
284	15450
285	15452
285	15454
285	15456
285	15458
285	15460
285	15462
286	15464
285	15466
286	15468
286	15470
286	15472
286	15474
286	15476
287	15478
287	15480
287	15482
287	15484
287	15486
287	15488
287	15490
288	15492
288	15494
288	15496
288	15498
288	15500
288	15502
289	15504
289	15506
289	15508
289	15510
289	15512
290	15514
290	15516
290	15518
291	15520
291	15522
292	15524
292	15526
292	15528
293	15531
293	15533
294	15535
294	15537
295	15539
295	15541
295	15543
296	15545
296	15547
296	15549
297	15551
298	15553
298	15555
298	15557
299	15559
299	15561
300	15563
300	15565
301	15567
301	15569
301	15571
302	15574
302	15576
302	15578
302	15580
303	15582
303	15584
303	15586
303	15588
303	15590
303	15592
303	15594
302	15596
303	15598
302	15600
302	15602
302	15604
302	15606
301	15608
301	15610
301	15612
300	15614
300	15616
300	15618
299	15620
299	15622
299	15624
299	15626
298	15628
298	15630
298	15632
298	15634
298	15636
298	15638
297	15640
297	15642
297	15644
297	15646
297	15648
297	15650
297	15652
297	15654
296	15656
296	15659
296	15661
296	15663
295	15665
294	15667
294	15669
294	15671
294	15673
294	15675
296	15677
298	15679
302	15681
306	15683
311	15685
318	15687
326	15689
334	15691
342	15693
351	15695
358	15697
365	15699
370	15702
375	15704
378	15706
380	15708
380	15710
379	15712
379	15714
378	15716
376	15718
373	15720
371	15722
368	15724
364	15726
361	15728
357	15730
354	15732
350	15734
347	15736
344	15738
340	15740
337	15742
336	15744
332	15746
330	15748
327	15750
324	15752
322	15754
319	15756
317	15758
314	15760
312	15762
310	15764
308	15766
306	15768
304	15770
302	15772
301	15774
299	15776
298	15778
296	15780
295	15782
294	15784
293	15787
292	15789
291	15791
290	15793
289	15795
288	15797
287	15799
287	15801
286	15803
285	15805
285	15807
284	15809
284	15811
284	15813
283	15815
283	15817
283	15819
282	15821
282	15823
282	15825
282	15827
282	15830
282	15832
282	15834
282	15836
282	15838
282	15840
283	15842
283	15844
283	15846
283	15848
283	15850
284	15852
284	15854
285	15856
285	15858
285	15860
286	15862
286	15864
287	15866
287	15868
288	15870
288	15872
289	15874
289	15876
290	15878
291	15880
291	15882
292	15884
293	15886
294	15888
295	15890
296	15892
297	15894
298	15896
299	15898
300	15900
301	15902
302	15904
303	15906
305	15908
306	15910
307	15912
308	15915
309	15917
310	15919
312	15921
313	15923
314	15925
315	15927
316	15929
317	15931
318	15933
319	15935
320	15937
321	15939
322	15941
322	15943
323	15945
324	15947
324	15949
325	15951
325	15953
325	15955
325	15958
326	15960
326	15962
325	15964
325	15966
325	15968
325	15970
324	15972
323	15974
323	15976
322	15978
321	15980
320	15982
319	15984
318	15986
316	15988
315	15990
314	15992
313	15994
311	15996
310	15998
309	16000
308	16002
306	16004
305	16006
304	16008
302	16010
301	16012
300	16014
299	16016
297	16018
296	16020
295	16022
294	16024
294	16026
292	16028
292	16030
291	16032
290	16034
289	16036
289	16038
288	16040
287	16043
287	16045
286	16047
286	16049
285	16051
285	16053
285	16055
285	16057
284	16059
284	16061
284	16063
283	16065
283	16067
283	16069
283	16071
283	16073
282	16075
282	16077
283	16079
282	16081
282	16083
282	16086
283	16088
282	16090
283	16092
283	16094
283	16096
283	16098
283	16100
283	16102
283	16104
283	16106
283	16108
283	16110
283	16112
283	16114
283	16116
284	16118
284	16120
284	16122
284	16124
284	16126
284	16128
284	16130
284	16132
284	16134
284	16136
285	16138
285	16140
285	16142
285	16144
285	16146
285	16148
285	16150
285	16152
286	16154
286	16156
286	16158
286	16160
286	16162
286	16164
286	16166
287	16168
287	16171
287	16173
287	16175
287	16177
287	16179
287	16181
288	16183
288	16185
288	16187
288	16189
288	16191
288	16193
289	16195
289	16197
289	16199
289	16201
290	16203
290	16205
290	16207
290	16209
290	16211
290	16214
290	16216
291	16218
291	16220
291	16222
291	16224
291	16226
292	16228
292	16230
292	16232
292	16234
293	16236
293	16238
294	16240
294	16242
295	16244
295	16246
295	16248
296	16250
296	16252
297	16254
297	16256
297	16258
297	16260
298	16262
298	16264
299	16266
299	16268
300	16270
300	16272
301	16274
301	16276
302	16278
302	16280
302	16282
303	16284
303	16286
303	16288
303	16290
303	16292
304	16294
304	16296
304	16299
304	16301
304	16303
304	16305
304	16307
304	16309
304	16311
303	16313
303	16315
303	16317
303	16319
302	16321
302	16323
302	16325
302	16327
301	16329
301	16331
300	16333
300	16335
300	16337
300	16339
299	16342
299	16344
299	16346
299	16348
299	16350
298	16352
299	16354
298	16356
298	16358
298	16360
298	16362
298	16364
298	16366
297	16368
297	16370
297	16372
296	16374
296	16376
296	16378
295	16380
295	16382
294	16384
295	16386
296	16388
297	16390
300	16392
303	16394
308	16396
314	16398
320	16400
328	16402
336	16404
344	16406
353	16408
360	16410
367	16412
372	16414
376	16416
380	16418
381	16420
381	16422
380	16424
380	16427
378	16429
376	16431
374	16433
372	16435
368	16437
365	16439
361	16441
358	16443
354	16445
351	16447
347	16449
344	16451
341	16453
337	16455
334	16457
332	16459
329	16461
326	16463
323	16465
320	16467
318	16470
316	16472
313	16474
311	16476
309	16478
307	16480
305	16482
304	16484
302	16486
300	16488
299	16490
297	16492
296	16494
295	16496
293	16498
292	16500
292	16502
290	16504
289	16506
289	16508
288	16510
287	16512
287	16514
287	16516
286	16518
285	16520
285	16522
284	16524
284	16526
284	16528
283	16530
283	16532
283	16534
283	16536
283	16538
283	16540
283	16542
283	16544
283	16546
283	16548
283	16550
283	16552
283	16555
283	16557
284	16559
284	16561
284	16563
284	16565
285	16567
285	16569
286	16571
286	16573
286	16575
287	16577
287	16579
288	16581
288	16583
289	16585
289	16587
290	16589
291	16591
291	16593
292	16595
293	16598
294	16600
295	16602
296	16604
297	16606
298	16608
299	16610
300	16612
301	16614
302	16616
303	16618
305	16620
306	16622
307	16624
308	16626
309	16628
310	16630
312	16632
313	16634
314	16636
315	16638
316	16640
317	16642
318	16644
319	16646
320	16648
321	16650
321	16652
322	16654
323	16656
323	16658
324	16660
325	16662
325	16664
325	16666
326	16668
326	16670
326	16672
326	16674
326	16676
326	16678
326	16680
325	16683
324	16685
324	16687
323	16689
322	16691
321	16693
320	16695
319	16697
318	16699
317	16701
316	16703
315	16705
313	16707
312	16709
310	16711
309	16713
308	16715
307	16717
305	16719
304	16721
302	16723
301	16726
300	16728
299	16730
298	16732
297	16734
296	16736
295	16738
294	16740
293	16742
292	16744
291	16746
291	16748
290	16750
289	16752
289	16754
288	16756
288	16758
287	16760
287	16762
286	16764
286	16766
286	16768
285	16770
285	16772
285	16774
284	16776
284	16778
284	16780
284	16782
284	16784
284	16786
284	16788
284	16790
283	16792
284	16794
283	16796
283	16798
283	16800
283	16802
284	16804
284	16806
284	16808
284	16811
284	16813
284	16815
284	16817
284	16819
284	16821
284	16823
284	16825
284	16827
284	16829
284	16831
284	16833
284	16835
285	16837
285	16839
285	16841
285	16843
285	16845
285	16847
285	16849
285	16851
285	16854
285	16856
285	16858
286	16860
286	16862
286	16864
286	16866
286	16868
286	16870
286	16872
286	16874
287	16876
287	16878
287	16880
287	16882
287	16884
287	16886
287	16888
287	16890
287	16892
288	16894
288	16896
288	16898
288	16900
288	16902
288	16904
288	16906
288	16908
289	16910
289	16912
289	16914
289	16916
289	16918
290	16920
290	16922
290	16924
290	16926
291	16928
291	16930
291	16932
291	16934
291	16936
291	16939
291	16941
291	16943
292	16945
292	16947
292	16949
293	16951
293	16953
294	16955
294	16957
294	16959
295	16961
295	16963
296	16965
296	16967
296	16969
297	16971
297	16973
298	16975
298	16977
298	16979
299	16982
299	16984
300	16986
300	16988
301	16990
301	16992
302	16994
302	16996
302	16998
303	17000
303	17002
303	17004
303	17006
304	17008
304	17010
304	17012
304	17014
304	17016
304	17018
304	17020
304	17022
304	17024
304	17026
303	17028
304	17030
303	17032
303	17034
302	17036
302	17038
302	17040
302	17042
301	17044
301	17046
301	17048
300	17050
300	17052
300	17054
299	17056
299	17058
299	17060
298	17062
298	17064
298	17067
298	17069
298	17071
298	17073
298	17075
298	17077
297	17079
297	17081
297	17083
297	17085
297	17087
297	17089
296	17091
296	17093
295	17095
294	17097
294	17099
294	17101
295	17103
296	17105
299	17107
302	17110
307	17112
312	17114
319	17116
326	17118
335	17120
343	17122
352	17124
359	17126
366	17128
371	17130
375	17132
379	17134
380	17136
380	17138
379	17140
378	17142
377	17144
375	17146
372	17148
370	17150
368	17152
365	17154
361	17156
357	17158
354	17160
351	17162
347	17164
344	17166
341	17168
337	17170
335	17172
331	17174
329	17176
326	17178
323	17180
321	17182
318	17184
316	17186
313	17188
311	17190
309	17192
307	17195
305	17197
304	17199
302	17201
300	17203
299	17205
297	17207
296	17209
295	17211
293	17213
292	17215
291	17217
290	17219
289	17221
288	17223
287	17225
287	17227
286	17229
286	17231
285	17233
285	17235
284	17238
283	17240
283	17242
283	17244
283	17246
282	17248
282	17250
282	17252
282	17254
282	17256
282	17258
282	17260
282	17262
282	17264
282	17266
282	17268
282	17270
282	17272
283	17274
283	17276
283	17278
283	17280
284	17282
284	17284
284	17286
284	17288
285	17290
285	17292
286	17294
286	17296
287	17298
288	17300
288	17302
289	17304
290	17306
290	17308
291	17310
292	17312
292	17314
293	17316
294	17318
295	17320
296	17323
297	17325
298	17327
299	17329
300	17331
302	17333
303	17335
304	17337
305	17339
306	17341
308	17343
309	17345
310	17347
311	17349
312	17351
313	17353
314	17355
315	17357
317	17359
318	17361
319	17363
319	17366
320	17368
321	17370
322	17372
322	17374
323	17376
323	17378
324	17380
324	17382
325	17384
325	17386
325	17388
325	17390
325	17392
325	17394
324	17396
324	17398
323	17400
322	17402
322	17404
321	17406
320	17408
320	17410
319	17412
317	17414
316	17416
315	17418
314	17420
312	17422
311	17424
310	17426
308	17428
307	17430
305	17432
304	17434
303	17436
301	17438
300	17440
299	17442
298	17444
296	17446
295	17448
294	17451
293	17453
293	17455
292	17457
291	17459
290	17461
289	17463
288	17465
288	17467
287	17469
286	17471
286	17473
285	17475
285	17477
284	17479
284	17481
284	17483
283	17485
283	17487
282	17489
282	17491
282	17494
282	17496
282	17498
282	17500
282	17502
281	17504
281	17506
281	17508
281	17510
281	17512
281	17514
281	17516
281	17518
281	17520
281	17522
282	17524
281	17526
281	17528
281	17530
282	17532
282	17534
282	17536
282	17538
282	17540
282	17542
282	17544
282	17546
282	17548
282	17550
282	17552
283	17554
283	17556
283	17558
282	17560
283	17562
283	17564
283	17566
284	17568
283	17570
283	17572
284	17574
284	17576
284	17579
284	17581
284	17583
284	17585
284	17587
284	17589
284	17591
285	17593
285	17595
285	17597
285	17599
285	17601
285	17603
285	17605
285	17607
286	17609
286	17611
286	17613
286	17615
286	17617
286	17619
287	17622
287	17624
287	17626
287	17628
287	17630
288	17632
288	17634
288	17636
288	17638
288	17640
288	17642
288	17644
289	17646
289	17648
289	17650
289	17652
289	17654
290	17656
290	17658
291	17660
291	17662
291	17664
292	17666
292	17668
293	17670
293	17672
294	17674
294	17676
294	17678
295	17680
295	17682
295	17684
296	17686
296	17688
297	17690
297	17692
298	17694
298	17696
299	17698
299	17700
300	17702
300	17704
301	17707
301	17709
301	17711
301	17713
302	17715
302	17717
302	17719
302	17721
302	17723
302	17725
302	17727
302	17729
302	17731
302	17733
302	17735
301	17737
301	17739
301	17741
301	17743
300	17745
300	17747
300	17750
299	17752
299	17754
299	17756
298	17758
298	17760
298	17762
298	17764
298	17766
297	17768
297	17770
297	17772
297	17774
297	17776
296	17778
296	17780
296	17782
296	17784
296	17786
296	17788
296	17790
296	17792
295	17794
295	17796
295	17798
294	17800
294	17802
293	17804
293	17806
293	17808
294	17810
296	17812
299	17814
302	17816
307	17818
312	17820
319	17822
326	17824
334	17826
342	17828
350	17830
356	17832
362	17835
367	17837
370	17839
371	17841
371	17843
370	17845
368	17847
366	17849
364	17851
361	17853
358	17855
355	17857
352	17859
348	17861
345	17863
342	17865
339	17867
336	17869
333	17871
330	17873
327	17875
325	17878
323	17880
320	17882
319	17884
316	17886
314	17888
312	17890
310	17892
308	17894
307	17896
305	17898
304	17900
302	17902
301	17904
299	17906
298	17908
297	17910
296	17912
295	17914
294	17916
293	17918
293	17920
292	17922
291	17924
291	17926
290	17928
289	17930
289	17932
288	17934
288	17936
288	17938
287	17940
287	17942
287	17944
286	17946
286	17948
286	17950
286	17952
286	17954
286	17956
286	17958
286	17960
286	17963
286	17965
286	17967
286	17969
286	17971
287	17973
287	17975
287	17977
287	17979
287	17981
288	17983
288	17985
288	17987
289	17989
289	17991
289	17993
290	17995
290	17997
290	17999
291	18001
291	18003
292	18006
293	18008
293	18010
294	18012
295	18014
295	18016
296	18018
297	18020
298	18022
298	18024
300	18026
301	18028
301	18030
302	18032
303	18034
305	18036
305	18038
307	18040
308	18042
309	18044
310	18046
311	18048
312	18050
313	18052
314	18054
315	18056
316	18058
318	18060
319	18062
320	18064
320	18066
321	18068
322	18070
323	18072
324	18074
325	18076
325	18078
326	18080
326	18082
327	18084
327	18086
327	18088
327	18091
327	18093
327	18095
327	18097
327	18099
326	18101
326	18103
326	18105
325	18107
324	18109
324	18111
323	18113
322	18115
321	18117
319	18119
318	18121
317	18123
316	18125
314	18127
313	18129
312	18131
310	18134
309	18136
308	18138
306	18140
305	18142
304	18144
302	18146
301	18148
300	18150
298	18152
298	18154
296	18156
295	18158
294	18160
294	18162
293	18164
292	18166
291	18168
290	18170
290	18172
289	18174
289	18176
288	18178
288	18180
287	18182
287	18184
286	18186
286	18188
286	18190
285	18192
285	18194
285	18196
284	18198
284	18200
284	18202
284	18204
284	18206
284	18208
284	18210
283	18212
284	18214
283	18216
284	18219
283	18221
283	18223
284	18225
284	18227
284	18229
283	18231
284	18233
284	18235
284	18237
284	18239
284	18241
284	18243
284	18245
284	18247
284	18249
284	18251
284	18253
284	18255
284	18257
284	18259
285	18262
285	18264
285	18266
284	18268
285	18270
285	18272
285	18274
285	18276
285	18278
286	18280
285	18282
285	18284
285	18286
286	18288
286	18290
286	18292
286	18294
286	18296
287	18298
287	18300
287	18302
287	18304
287	18306
287	18308
287	18310
287	18312
288	18314
288	18316
288	18318
288	18320
288	18322
288	18324
289	18326
289	18328
289	18330
289	18332
289	18334
289	18336
289	18338
290	18340
290	18342
290	18344
290	18347
290	18349
290	18351
291	18353
291	18355
291	18357
291	18359
292	18361
292	18363
292	18365
293	18367
294	18369
294	18371
294	18373
295	18375
295	18377
296	18379
296	18381
296	18383
296	18385
297	18387
297	18390
298	18392
298	18394
299	18396
299	18398
299	18400
300	18402
301	18404
301	18406
301	18408
302	18410
302	18412
302	18414
303	18416
303	18418
303	18420
304	18422
303	18424
304	18426
304	18428
304	18430
303	18432
304	18434
303	18436
303	18438
303	18440
303	18442
303	18444
303	18446
302	18448
302	18450
302	18452
301	18454
301	18456
301	18458
300	18460
300	18462
300	18464
299	18466
299	18468
299	18470
299	18472
298	18475
298	18477
298	18479
298	18481
298	18483
298	18485
297	18487
297	18489
297	18491
297	18493
297	18495
297	18497
297	18499
296	18501
296	18503
296	18505
295	18507
295	18509
295	18511
295	18513
296	18515
298	18518
301	18520
304	18522
308	18524
313	18526
319	18528
326	18530
333	18532
340	18534
347	18536
354	18538
359	18540
363	18542
366	18544
368	18546
368	18548
366	18550
363	18552
361	18554
359	18556
356	18558
354	18560
352	18562
348	18564
345	18566
342	18568
339	18570
335	18572
333	18574
330	18576
328	18578
325	18580
323	18582
321	18584
319	18586
317	18588
315	18590
313	18592
311	18594
309	18596
308	18598
306	18600
305	18603
304	18605
302	18607
301	18609
300	18611
299	18613
298	18615
297	18617
296	18619
295	18621
294	18623
294	18625
293	18627
292	18629
292	18631
291	18633
291	18635
290	18637
290	18639
289	18641
289	18643
289	18646
289	18648
288	18650
288	18652
288	18654
288	18656
288	18658
288	18660
288	18662
288	18664
288	18666
288	18668
288	18670
288	18672
288	18674
289	18676
289	18678
289	18680
289	18682
290	18684
290	18686
290	18688
290	18690
291	18692
291	18694
291	18696
291	18698
292	18700
292	18702
293	18704
293	18706
293	18708
294	18710
295	18712
295	18714
296	18716
297	18718
298	18720
298	18722
299	18724
300	18726
301	18728
301	18731
302	18733
303	18735
304	18737
305	18739
306	18741
307	18743
308	18745
309	18747
310	18749
311	18751
312	18753
314	18755
315	18757
316	18759
317	18761
318	18763
319	18765
320	18767
320	18769
322	18771
322	18774
323	18776
324	18778
325	18780
325	18782
326	18784
327	18786
327	18788
327	18790
328	18792
328	18794
328	18796
328	18798
328	18800
328	18802
328	18804
327	18806
327	18808
327	18810
326	18812
325	18814
325	18816
324	18818
324	18820
322	18822
321	18824
320	18826
319	18828
318	18830
317	18832
315	18834
314	18836
313	18838
311	18840
310	18842
309	18844
307	18846
306	18848
305	18850
304	18852
303	18854
301	18856
300	18859
299	18861
298	18863
297	18865
296	18867
295	18869
294	18871
294	18873
293	18875
292	18877
291	18879
291	18881
290	18883
290	18885
289	18887
289	18889
288	18891
288	18893
288	18895
287	18897
287	18899
287	18902
287	18904
287	18906
286	18908
286	18910
286	18912
286	18914
286	18916
286	18918
286	18920
286	18922
286	18924
286	18926
286	18928
286	18930
286	18932
286	18934
286	18936
286	18938
286	18940
286	18942
286	18944
286	18946
286	18948
286	18950
286	18952
287	18954
286	18956
287	18958
287	18960
287	18962
287	18964
287	18966
287	18968
287	18970
287	18972
287	18974
287	18976
288	18978
288	18980
288	18982
288	18984
288	18987
288	18989
288	18991
288	18993
289	18995
289	18997
289	18999
289	19001
289	19003
289	19005
289	19007
290	19009
290	19011
290	19013
290	19015
290	19017
290	19019
290	19021
290	19023
291	19025
291	19027
291	19030
291	19032
291	19034
291	19036
291	19038
292	19040
292	19042
292	19044
292	19046
292	19048
292	19050
292	19052
292	19054
293	19056
293	19058
293	19060
293	19062
293	19064
293	19066
294	19068
294	19070
294	19072
294	19074
294	19076
295	19078
295	19080
296	19082
296	19084
297	19086
297	19088
298	19090
298	19092
298	19094
299	19096
299	19098
299	19100
299	19102
300	19104
300	19106
301	19108
301	19110
302	19112
302	19115
303	19117
303	19119
303	19121
304	19123
304	19125
304	19127
304	19129
305	19131
305	19133
306	19135
305	19137
305	19139
306	19141
306	19143
306	19145
305	19147
305	19149
305	19151
305	19153
305	19155
304	19158
304	19160
304	19162
304	19164
303	19166
303	19168
303	19170
302	19172
302	19174
301	19176
301	19178
301	19180
301	19182
300	19184
300	19186
300	19188
299	19190
300	19192
299	19194
300	19196
299	19198
299	19200
299	19202
299	19204
299	19206
298	19208
298	19210
298	19212
298	19214
298	19216
297	19218
297	19220
296	19222
296	19224
296	19226
297	19228
299	19230
301	19232
304	19234
308	19236
312	19238
318	19240
324	19243
331	19245
339	19247
346	19249
353	19251
359	19253
364	19255
367	19257
369	19259
370	19261
369	19263
367	19265
366	19267
364	19269
361	19271
358	19273
356	19275
352	19277
349	19279
346	19281
343	19283
340	19286
337	19288
334	19290
331	19292
329	19294
327	19296
324	19298
322	19300
320	19302
318	19304
316	19306
314	19308
312	19310
310	19312
308	19314
307	19316
305	19318
304	19320
303	19322
301	19324
300	19326
300	19328
298	19330
298	19332
296	19334
295	19336
295	19338
294	19340
293	19342
292	19344
292	19346
291	19348
291	19350
290	19352
290	19354
289	19356
289	19358
289	19360
288	19362
288	19364
288	19366
288	19368
288	19371
288	19373
288	19375
288	19377
288	19379
287	19381
288	19383
288	19385
288	19387
288	19389
288	19391
288	19393
288	19395
289	19397
289	19399
289	19401
289	19403
290	19405
290	19407
290	19409
291	19411
291	19414
291	19416
292	19418
292	19420
293	19422
294	19424
294	19426
295	19428
295	19430
296	19432
297	19434
297	19436
298	19438
299	19440
300	19442
300	19444
301	19446
302	19448
303	19450
304	19452
305	19454
305	19456
307	19458
308	19460
309	19462
310	19464
311	19466
312	19468
313	19470
314	19472
315	19474
317	19476
317	19478
318	19480
319	19482
320	19484
321	19486
322	19488
323	19490
323	19492
324	19494
325	19496
325	19499
326	19501
327	19503
327	19505
327	19507
327	19509
328	19511
328	19513
327	19515
327	19517
327	19519
327	19521
327	19523
326	19525
325	19527
325	19529
324	19531
323	19533
322	19535
321	19537
320	19539
319	19542
318	19544
316	19546
315	19548
314	19550
312	19552
311	19554
310	19556
309	19558
307	19560
306	19562
305	19564
303	19566
302	19568
301	19570
300	19572
298	19574
298	19576
296	19578
295	19580
295	19582
294	19584
293	19586
293	19588
292	19590
291	19592
290	19594
290	19596
289	19598
289	19600
288	19602
288	19604
287	19606
287	19608
287	19610
286	19612
286	19614
286	19616
285	19618
285	19620
285	19622
285	19624
285	19627
284	19629
285	19631
285	19633
284	19635
285	19637
285	19639
284	19641
284	19643
285	19645
284	19647
285	19649
285	19651
285	19653
285	19655
285	19657
285	19659
285	19661
285	19663
285	19665
285	19667
285	19670
285	19672
285	19674
285	19676
286	19678
286	19680
286	19682
286	19684
286	19686
286	19688
286	19690
286	19692
286	19694
286	19696
286	19698
286	19700
286	19702
287	19704
287	19706
287	19708
287	19710
287	19712
287	19714
287	19716
287	19718
288	19720
288	19722
288	19724
288	19726
288	19728
288	19730
288	19732
288	19734
289	19736
289	19738
289	19740
289	19742
289	19744
290	19746
290	19748
290	19750
290	19752
290	19755
290	19757
290	19759
291	19761
291	19763
291	19765
291	19767
291	19769
291	19771
292	19773
292	19775
292	19777
292	19779
292	19781
292	19783
293	19785
293	19787
293	19789
293	19791
293	19793
293	19795
294	19798
294	19800
295	19802
295	19804
295	19806
296	19808
297	19810
297	19812
297	19814
298	19816
298	19818
298	19820
298	19822
299	19824
299	19826
300	19828
300	19830
301	19832
301	19834
302	19836
302	19838
302	19840
303	19842
303	19844
303	19846
303	19848
304	19850
304	19852
304	19854
304	19856
304	19858
305	19860
304	19862
304	19864
304	19866
304	19868
304	19870
304	19872
304	19874
304	19876
304	19878
303	19880
303	19883
303	19885
303	19887
302	19889
302	19891
302	19893
301	19895
301	19897
301	19899
301	19901
300	19903
300	19905
300	19907
300	19909
299	19911
299	19913
299	19915
299	19917
299	19919
298	19921
298	19923
298	19926
298	19928
298	19930
298	19932
298	19934
297	19936
297	19938
297	19940
296	19942
296	19944
296	19946
296	19948
296	19950
298	19952
300	19954
303	19956
307	19958
312	19960
319	19962
325	19964
333	19966
337	19968
344	19970
352	19972
358	19974
364	19976
369	19978
372	19980
374	19982
374	19984
373	19986
372	19988
371	19990
369	19992
366	19994
364	19996
361	19998
358	20000
354	20002
351	20004
348	20006
345	20008
342	20011
339	20013
336	20015
333	20017
330	20019
328	20021
325	20023
323	20025
320	20027
318	20029
316	20031
314	20033
312	20035
310	20037
308	20039
306	20041
305	20043
303	20045
302	20047
300	20049
299	20051
298	20054
296	20056
295	20058
294	20060
293	20062
292	20064
291	20066
291	20068
290	20070
289	20072
288	20074
288	20076
287	20078
287	20080
286	20082
286	20084
286	20086
286	20088
285	20090
285	20092
285	20094
285	20096
285	20098
285	20100
285	20102
285	20104
285	20106
285	20108
285	20110
285	20112
285	20114
285	20116
285	20118
285	20120
286	20122
286	20124
286	20126
287	20128
287	20130
287	20132
288	20134
288	20136
289	20139
289	20141
289	20143
290	20145
291	20147
291	20149
292	20151
292	20153
293	20155
293	20157
294	20159
295	20161
296	20163
297	20165
297	20167
298	20169
299	20171
300	20173
301	20175
302	20177
304	20179
305	20182
306	20184
307	20186
308	20188
309	20190
310	20192
311	20194
313	20196
314	20198
315	20200
316	20202
317	20204
318	20206
319	20208
320	20210
320	20212
321	20214
322	20216
323	20218
323	20220
324	20222
324	20224
325	20226
325	20228
325	20230
326	20232
326	20234
326	20236
326	20238
326	20240
326	20242
325	20244
325	20246
325	20248
324	20250
323	20252
322	20254
322	20256
321	20258
320	20260
318	20262
317	20264
316	20267
315	20269
313	20271
312	20273
311	20275
310	20277
308	20279
307	20281
305	20283
304	20285
303	20287
302	20289
300	20291
299	20293
298	20295
297	20297
296	20299
295	20301
294	20303
293	20305
292	20307
291	20310
291	20312
290	20314
289	20316
289	20318
288	20320
288	20322
287	20324
287	20326
286	20328
286	20330
285	20332
285	20334
285	20336
284	20338
284	20340
284	20342
284	20344
284	20346
284	20348
283	20350
283	20352
283	20354
283	20356
283	20358
283	20360
283	20362
283	20364
283	20366
283	20368
283	20370
283	20372
283	20374
283	20376
283	20378
283	20380
283	20382
283	20384
283	20386
283	20388
283	20390
283	20392
283	20395
283	20397
283	20399
284	20401
284	20403
284	20405
284	20407
284	20409
284	20411
284	20413
284	20415
284	20417
284	20419
285	20421
285	20423
285	20425
285	20427
285	20429
285	20431
285	20433
285	20435
286	20438
286	20440
286	20442
286	20444
286	20446
286	20448
286	20450
286	20452
287	20454
287	20456
287	20458
287	20460
287	20462
287	20464
288	20466
288	20468
288	20470
288	20472
288	20474
288	20476
289	20478
289	20480
289	20482
289	20484
289	20486
289	20488
289	20490
290	20492
290	20494
290	20496
290	20498
290	20500
290	20502
291	20504
291	20506
291	20508
291	20510
291	20512
291	20514
292	20516
292	20518
292	20520
292	20523
293	20525
293	20527
293	20529
293	20531
294	20533
294	20535
294	20537
295	20539
295	20541
296	20543
297	20545
297	20547
297	20549
298	20551
298	20553
298	20555
298	20557
299	20559
299	20561
300	20563
301	20566
301	20568
301	20570
302	20572
302	20574
303	20576
303	20578
303	20580
303	20582
304	20584
304	20586
304	20588
304	20590
305	20592
305	20594
304	20596
305	20598
305	20600
304	20602
304	20604
304	20606
304	20608
304	20610
304	20612
304	20614
303	20616
303	20618
303	20620
303	20622
303	20624
302	20626
302	20628
301	20630
301	20632
301	20634
300	20636
301	20638
300	20640
300	20642
300	20644
299	20646
299	20648
299	20651
299	20653
299	20655
299	20657
298	20659
298	20661
298	20663
298	20665
298	20667
298	20669
297	20671
297	20673
297	20675
296	20677
296	20679
295	20681
296	20683
296	20685
298	20687
300	20689
303	20691
308	20694
313	20696
320	20698
327	20700
335	20702
343	20704
351	20706
358	20708
365	20710
370	20712
374	20714
377	20716
378	20718
378	20720
377	20722
376	20724
374	20726
372	20728
370	20730
367	20732
364	20734
362	20736
359	20738
355	20740
352	20742
348	20744
345	20746
342	20748
339	20750
336	20752
333	20754
330	20756
327	20758
325	20760
322	20762
320	20764
317	20766
315	20768
313	20770
311	20772
309	20774
307	20776
305	20779
304	20781
302	20783
301	20785
299	20787
298	20789
296	20791
295	20793
294	20795
293	20797
292	20799
291	20801
290	20803
289	20805
289	20807
288	20809
287	20811
287	20813
286	20815
286	20817
285	20819
285	20822
284	20824
284	20826
284	20828
284	20830
284	20832
284	20834
283	20836
283	20838
284	20840
283	20842
284	20844
283	20846
284	20848
284	20850
284	20852
284	20854
284	20856
285	20858
285	20860
285	20862
286	20864
286	20866
286	20868
287	20870
287	20872
288	20874
288	20876
289	20878
289	20880
290	20882
290	20884
291	20886
292	20888
292	20890
293	20892
293	20894
294	20896
295	20898
296	20900
297	20902
298	20904
299	20907
300	20909
301	20911
302	20913
303	20915
304	20917
305	20919
306	20921
308	20923
309	20925
310	20927
311	20929
312	20931
313	20933
314	20935
315	20937
317	20939
318	20941
319	20943
319	20945
320	20947
321	20950
322	20952
323	20954
324	20956
324	20958
325	20960
325	20962
326	20964
326	20966
326	20968
326	20970
326	20972
326	20974
326	20976
326	20978
326	20980
325	20982
325	20984
324	20986
323	20988
322	20990
322	20992
321	20994
320	20996
319	20998
318	21000
316	21002
315	21004
314	21006
312	21008
311	21010
309	21012
308	21014
307	21016
305	21018
304	21020
303	21022
302	21024
300	21026
299	21028
298	21030
297	21032
295	21035
294	21037
293	21039
293	21041
292	21043
291	21045
290	21047
289	21049
289	21051
288	21053
287	21055
287	21057
286	21059
286	21061
285	21063
285	21065
284	21067
284	21069
284	21071
283	21073
283	21075
283	21078
283	21080
283	21082
282	21084
282	21086
282	21088
282	21090
282	21092
282	21094
282	21096
282	21098
282	21100
282	21102
282	21104
282	21106
282	21108
282	21110
282	21112
282	21114
282	21116
282	21118
282	21120
282	21122
282	21124
282	21126
282	21128
282	21130
282	21132
283	21134
282	21136
283	21138
283	21140
283	21142
283	21144
283	21146
283	21148
283	21150
283	21152
283	21154
283	21156
284	21158
284	21160
284	21163
284	21165
284	21167
284	21169
285	21171
285	21173
285	21175
285	21177
285	21179
285	21181
285	21183
286	21185
286	21187
286	21189
286	21191
286	21193
286	21195
286	21197
287	21199
287	21201
287	21203
287	21206
287	21208
288	21210
288	21212
288	21214
288	21216
288	21218
288	21220
288	21222
289	21224
289	21226
289	21228
289	21230
289	21232
290	21234
290	21236
290	21238
290	21240
290	21242
291	21244
291	21246
291	21248
291	21250
291	21252
292	21254
292	21256
293	21258
293	21260
293	21262
294	21264
295	21266
295	21268
295	21270
296	21272
296	21274
296	21276
297	21278
297	21280
297	21282
298	21284
299	21286
299	21288
300	21291
300	21293
301	21295
301	21297
301	21299
302	21301
302	21303
303	21305
303	21307
303	21309
303	21311
303	21313
303	21315
303	21317
303	21319
303	21321
303	21323
303	21325
303	21327
303	21329
303	21331
303	21334
302	21336
302	21338
302	21340
301	21342
301	21344
301	21346
300	21348
300	21350
300	21352
300	21354
299	21356
299	21358
299	21360
299	21362
299	21364
298	21366
298	21368
298	21370
297	21372
298	21374
298	21376
297	21378
297	21380
297	21382
297	21384
297	21386
297	21388
296	21390
296	21392
296	21394
295	21396
295	21398
294	21400
294	21402
294	21404
295	21406
296	21408
299	21410
302	21412
306	21414
312	21416
318	21419
326	21421
334	21423
342	21425
351	21427
358	21429
365	21431
370	21433
375	21435
378	21437
379	21439
379	21441
378	21443
378	21445
376	21447
374	21449
372	21451
369	21453
366	21455
362	21457
359	21459
355	21462
352	21464
349	21466
345	21468
342	21470
339	21472
336	21474
333	21476
330	21478
327	21480
324	21482
322	21484
319	21486
317	21488
315	21490
312	21492
310	21494
308	21496
306	21498
304	21500
303	21502
302	21504
300	21506
299	21508
297	21510
296	21512
295	21514
293	21516
292	21518
291	21520
290	21522
289	21524
289	21526
288	21528
287	21530
286	21532
286	21534
285	21536
285	21538
285	21540
284	21542
284	21544
284	21547
283	21549
283	21551
283	21553
283	21555
283	21557
283	21559
283	21561
283	21563
283	21565
283	21567
283	21569
283	21571
283	21573
283	21575
284	21577
284	21579
284	21581
284	21583
285	21585
285	21587
286	21590
286	21592
286	21594
287	21596
288	21598
288	21600
288	21602
289	21604
290	21606
290	21608
291	21610
292	21612
292	21614
293	21616
294	21618
295	21620
296	21622
297	21624
298	21626
299	21628
300	21630
300	21632
301	21634
303	21636
303	21638
305	21640
306	21642
307	21644
308	21646
309	21648
310	21650
311	21652
313	21654
314	21656
315	21658
316	21660
317	21662
318	21664
319	21666
320	21668
320	21670
321	21672
322	21675
323	21677
323	21679
324	21681
324	21683
325	21685
325	21687
325	21689
326	21691
325	21693
325	21695
325	21697
325	21699
324	21701
324	21703
323	21705
323	21707
322	21709
321	21711
320	21713
319	21715
318	21718
317	21720
316	21722
315	21724
313	21726
312	21728
310	21730
309	21732
308	21734
307	21736
305	21738
304	21740
302	21742
301	21744
299	21746
298	21748
297	21750
296	21752
295	21754
294	21756
293	21758
293	21760
292	21762
291	21764
290	21766
289	21768
289	21770
288	21772
287	21774
287	21776
286	21778
286	21780
285	21782
285	21784
284	21786
284	21788
284	21790
283	21792
283	21794
283	21796
282	21798
283	21800
282	21803
282	21805
282	21807
282	21809
282	21811
282	21813
282	21815
282	21817
282	21819
282	21821
282	21823
282	21825
282	21827
282	21829
282	21831
282	21833
282	21835
282	21837
282	21839
282	21841
282	21843
282	21846
282	21848
282	21850
282	21852
282	21854
282	21856
282	21858
282	21860
282	21862
283	21864
283	21866
283	21868
283	21870
283	21872
283	21874
283	21876
283	21878
284	21880
284	21882
284	21884
284	21886
284	21888
284	21890
284	21892
285	21894
285	21896
285	21898
285	21900
285	21902
285	21904
286	21906
286	21908
286	21910
286	21912
286	21914
286	21916
286	21918
287	21920
287	21922
287	21924
287	21926
287	21928
287	21931
288	21933
288	21935
288	21937
288	21939
288	21941
288	21943
289	21945
289	21947
289	21949
289	21951
289	21953
289	21955
290	21957
290	21959
290	21961
290	21963
290	21965
291	21967
291	21969
291	21971
291	21974
291	21976
292	21978
292	21980
293	21982
293	21984
293	21986
294	21988
294	21990
295	21992
295	21994
296	21996
296	21998
296	22000
296	22002
297	22004
297	22006
298	22008
298	22010
299	22012
299	22014
299	22016
300	22018
300	22020
301	22022
301	22024
301	22026
301	22028
302	22030
302	22032
302	22034
303	22036
303	22038
303	22040
303	22042
303	22044
303	22046
303	22048
303	22050
302	22052
302	22054
302	22056
302	22059
302	22061
302	22063
301	22065
301	22067
301	22069
301	22071
300	22073
300	22075
300	22077
299	22079
299	22081
299	22083
298	22085
298	22087
298	22089
298	22091
298	22093
297	22095
297	22097
297	22099
297	22102
297	22104
297	22106
296	22108
296	22110
296	22112
296	22114
296	22116
295	22118
295	22120
294	22122
294	22124
294	22126
293	22128
294	22130
295	22132
297	22134
301	22136
305	22138
310	22140
316	22142
320	22144
327	22146
335	22148
343	22150
351	22152
358	22154
364	22156
369	22158
372	22160
374	22162
375	22164
374	22166
372	22168
371	22170
369	22172
366	22174
364	22176
361	22178
357	22180
354	22182
350	22184
347	22187
344	22189
341	22191
338	22193
335	22195
332	22197
329	22199
326	22201
324	22203
321	22205
319	22207
317	22209
314	22211
312	22213
310	22215
308	22217
307	22219
305	22221
303	22223
302	22225
300	22227
299	22230
297	22232
296	22234
295	22236
294	22238
293	22240
292	22242
291	22244
290	22246
289	22248
288	22250
288	22252
287	22254
287	22256
286	22258
286	22260
285	22262
285	22264
284	22266
284	22268
284	22270
284	22272
284	22274
284	22276
283	22278
283	22280
284	22282
284	22284
283	22286
284	22288
284	22290
284	22292
284	22294
284	22296
284	22298
285	22300
285	22302
285	22304
285	22306
286	22308
286	22310
287	22312
287	22315
288	22317
288	22319
288	22321
289	22323
290	22325
290	22327
291	22329
291	22331
292	22333
293	22335
294	22337
294	22339
295	22341
296	22343
297	22345
298	22347
298	22349
299	22351
300	22353
301	22355
302	22358
304	22360
304	22362
306	22364
307	22366
308	22368
309	22370
310	22372
311	22374
313	22376
314	22378
315	22380
316	22382
317	22384
318	22386
319	22388
320	22390
321	22392
322	22394
323	22396
323	22398
324	22400
324	22402
325	22404
325	22406
326	22408
326	22410
326	22412
326	22414
327	22416
327	22418
327	22420
326	22422
326	22424
326	22426
325	22428
324	22430
324	22432
323	22434
322	22436
321	22438
320	22440
319	22443
318	22445
316	22447
315	22449
314	22451
312	22453
311	22455
309	22457
308	22459
307	22461
306	22463
304	22465
303	22467
301	22469
300	22471
299	22473
298	22475
297	22477
296	22479
294	22481
294	22483
293	22486
292	22488
291	22490
290	22492
289	22494
289	22496
288	22498
287	22500
287	22502
286	22504
286	22506
285	22508
285	22510
284	22512
284	22514
284	22516
284	22518
283	22520
283	22522
283	22524
283	22526
282	22528
282	22530
282	22532
283	22534
282	22536
282	22538
282	22540
282	22542
282	22544
282	22546
282	22548
282	22550
282	22552
282	22554
282	22556
282	22558
282	22560
282	22562
282	22564
282	22566
282	22568
282	22571
282	22573
282	22575
283	22577
283	22579
282	22581
282	22583
283	22585
283	22587
283	22589
283	22591
283	22593
283	22595
284	22597
284	22599
284	22601
284	22603
284	22605
284	22607
284	22609
284	22611
285	22614
285	22616
285	22618
285	22620
285	22622
285	22624
285	22626
286	22628
286	22630
286	22632
286	22634
286	22636
286	22638
286	22640
287	22642
287	22644
287	22646
287	22648
287	22650
288	22652
288	22654
288	22656
288	22658
288	22660
288	22662
288	22664
288	22666
289	22668
289	22670
289	22672
289	22674
290	22676
290	22678
290	22680
291	22682
291	22684
292	22686
292	22688
292	22690
293	22692
293	22694
294	22696
294	22699
294	22701
295	22703
295	22705
295	22707
296	22709
296	22711
297	22713
298	22715
298	22717
298	22719
299	22721
299	22723
299	22725
300	22727
300	22729
301	22731
301	22733
301	22735
301	22737
302	22739
302	22742
302	22744
302	22746
302	22748
302	22750
302	22752
302	22754
302	22756
301	22758
301	22760
301	22762
301	22764
301	22766
300	22768
300	22770
299	22772
299	22774
299	22776
299	22778
298	22780
298	22782
298	22784
297	22786
297	22788
297	22790
297	22792
297	22794
296	22796
296	22798
296	22800
296	22802
296	22804
296	22806
296	22808
296	22810
296	22812
295	22814
295	22816
295	22818
295	22820
295	22822
294	22824
294	22827
293	22829
294	22831
294	22833
296	22835
299	22837
302	22839
307	22841
312	22843
319	22845
325	22847
333	22849
341	22851
348	22853
355	22855
360	22857
365	22859
368	22861
369	22863
369	22865
368	22867
366	22870
363	22872
361	22874
358	22876
355	22878
352	22880
348	22882
345	22884
341	22886
338	22888
335	22890
332	22892
330	22894
327	22896
325	22898
323	22900
320	22902
318	22904
316	22906
314	22908
312	22910
311	22912
310	22914
308	22916
306	22918
305	22920
303	22922
302	22924
300	22926
299	22928
298	22930
297	22932
296	22934
295	22936
294	22938
293	22940
293	22942
292	22944
291	22946
291	22948
290	22950
289	22952
289	22955
288	22957
288	22959
287	22961
287	22963
287	22965
287	22967
287	22969
286	22971
286	22973
286	22975
286	22977
286	22979
286	22981
286	22983
286	22985
286	22987
286	22989
287	22991
287	22993
287	22995
287	22998
288	23000
288	23002
288	23004
288	23006
289	23008
289	23010
290	23012
290	23014
290	23016
290	23018
291	23020
292	23022
292	23024
292	23026
293	23028
293	23030
294	23032
295	23034
295	23036
296	23038
296	23040
297	23042
298	23044
299	23046
300	23048
301	23050
302	23052
303	23054
304	23056
304	23058
305	23060
307	23062
307	23064
309	23066
310	23068
311	23070
312	23072
313	23074
314	23076
315	23078
316	23080
318	23083
319	23085
320	23087
320	23089
321	23091
322	23093
323	23095
324	23097
324	23099
325	23101
326	23103
326	23105
327	23107
327	23109
327	23111
327	23113
328	23115
328	23117
327	23119
327	23121
327	23123
327	23126
326	23128
325	23130
325	23132
324	23134
323	23136
322	23138
321	23140
320	23142
319	23144
318	23146
317	23148
315	23150
314	23152
313	23154
311	23156
310	23158
309	23160
307	23162
306	23164
305	23166
304	23168
303	23170
301	23172
300	23174
299	23176
298	23178
297	23180
296	23182
295	23184
294	23186
293	23188
292	23190
292	23192
291	23194
290	23196
289	23198
289	23200
289	23202
288	23204
288	23206
287	23208
287	23211
286	23213
286	23215
286	23217
285	23219
285	23221
285	23223
285	23225
285	23227
284	23229
284	23231
284	23233
284	23235
284	23237
284	23239
285	23241
284	23243
284	23245
284	23247
284	23249
284	23251
284	23254
284	23256
284	23258
284	23260
284	23262
285	23264
285	23266
285	23268
285	23270
285	23272
285	23274
285	23276
285	23278
285	23280
286	23282
286	23284
286	23286
286	23288
286	23290
286	23292
286	23294
287	23296
287	23298
287	23300
287	23302
287	23304
287	23306
288	23308
288	23310
288	23312
288	23314
288	23316
288	23318
289	23320
289	23322
289	23324
289	23326
289	23328
289	23330
290	23332
290	23334
290	23336
290	23339
290	23341
291	23343
291	23345
291	23347
291	23349
292	23351
292	23353
292	23355
292	23357
292	23359
292	23361
293	23363
293	23365
293	23367
293	23369
293	23371
293	23373
293	23375
293	23377
293	23379
294	23382
294	23384
294	23386
294	23388
294	23390
295	23392
295	23394
296	23396
296	23398
297	23400
297	23402
298	23404
298	23406
299	23408
299	23410
299	23412
299	23414
300	23416
300	23418
301	23420
301	23422
301	23424
302	23426
302	23428
303	23430
303	23432
304	23434
304	23436
304	23438
305	23440
305	23442
305	23444
306	23446
306	23448
306	23450
306	23452
307	23454
306	23456
306	23458
306	23460
306	23462
306	23464
306	23467
306	23469
306	23471
306	23473
305	23475
305	23477
305	23479
304	23481
304	23483
304	23485
303	23487
303	23489
303	23491
302	23493
302	23495
301	23497
301	23499
301	23501
301	23503
301	23505
300	23507
300	23510
300	23512
300	23514
299	23516
299	23518
299	23520
299	23522
299	23524
299	23526
299	23528
298	23530
298	23532
298	23534
297	23536
297	23538
296	23540
296	23542
297	23544
298	23546
300	23548
304	23550
305	23552
310	23554
315	23556
321	23558
327	23560
335	23562
342	23564
349	23566
356	23568
362	23570
366	23572
369	23574
371	23576
372	23578
370	23580
369	23582
367	23584
365	23586
362	23588
360	23590
357	23592
353	23595
350	23597
347	23599
344	23601
341	23603
338	23605
335	23607
333	23609
330	23611
328	23613
325	23615
323	23617
321	23619
318	23621
316	23623
314	23625
313	23627
311	23629
309	23631
307	23633
306	23635
304	23638
303	23640
302	23642
300	23644
299	23646
298	23648
297	23650
296	23652
295	23654
294	23656
293	23658
293	23660
292	23662
292	23664
291	23666
290	23668
290	23670
290	23672
289	23674
289	23676
288	23678
288	23680
288	23682
288	23684
288	23686
287	23688
287	23690
287	23692
287	23694
287	23696
287	23698
288	23700
287	23702
288	23704
288	23706
288	23708
288	23710
288	23712
289	23714
289	23716
289	23718
289	23720
290	23723
290	23725
290	23727
291	23729
291	23731
291	23733
292	23735
292	23737
293	23739
293	23741
294	23743
294	23745
295	23747
295	23749
296	23751
297	23753
298	23755
298	23757
299	23759
300	23761
301	23763
302	23766
303	23768
304	23770
305	23772
306	23774
307	23776
308	23778
309	23780
310	23782
311	23784
312	23786
313	23788
314	23790
315	23792
316	23794
317	23796
318	23798
319	23800
320	23802
321	23804
322	23806
322	23808
323	23810
324	23812
324	23814
325	23816
325	23818
326	23820
326	23822
327	23824
327	23826
327	23828
327	23830
327	23832
327	23834
327	23836
327	23838
326	23840
325	23842
325	23844
324	23846
323	23848
322	23851
322	23853
320	23855
320	23857
318	23859
317	23861
316	23863
315	23865
313	23867
312	23869
311	23871
309	23873
308	23875
307	23877
306	23879
304	23881
303	23883
302	23885
301	23887
299	23889
299	23891
298	23894
296	23896
296	23898
294	23900
294	23902
293	23904
292	23906
292	23908
291	23910
290	23912
290	23914
289	23916
289	23918
288	23920
288	23922
287	23924
287	23926
287	23928
286	23930
286	23932
286	23934
286	23936
285	23938
285	23940
286	23942
285	23944
285	23946
285	23948
285	23950
285	23952
285	23954
285	23956
285	23958
285	23960
285	23962
285	23964
285	23966
285	23968
285	23970
285	23972
285	23974
285	23976
285	23979
285	23981
285	23983
285	23985
285	23987
285	23989
286	23991
286	23993
286	23995
286	23997
286	23999
286	24001
286	24003
286	24005
286	24007
286	24009
286	24011
286	24013
286	24015
286	24017
287	24019
286	24022
287	24024
287	24026
287	24028
287	24030
287	24032
287	24034
287	24036
287	24038
288	24040
288	24042
288	24044
288	24046
288	24048
288	24050
288	24052
289	24054
289	24056
289	24058
289	24060
289	24062
289	24064
289	24066
290	24068
290	24070
290	24072
290	24074
290	24076
290	24078
290	24080
291	24082
291	24084
291	24086
291	24088
291	24090
291	24092
292	24094
292	24096
292	24098
292	24100
292	24102
292	24104
293	24107
293	24109
293	24111
293	24113
294	24115
294	24117
295	24119
295	24121
295	24123
296	24125
297	24127
297	24129
297	24131
298	24133
298	24135
298	24137
299	24139
299	24141
299	24143
300	24145
300	24147
301	24150
301	24152
302	24154
302	24156
302	24158
303	24160
303	24162
304	24164
304	24166
304	24168
304	24170
304	24172
305	24174
304	24176
304	24178
304	24180
304	24182
304	24184
304	24186
304	24188
304	24190
304	24192
304	24194
304	24196
303	24198
303	24200
303	24202
302	24204
302	24206
301	24208
301	24210
301	24212
300	24214
300	24216
300	24218
300	24220
299	24222
299	24224
299	24226
299	24228
298	24230
298	24232
298	24235
298	24237
298	24239
297	24241
297	24243
297	24245
297	24247
297	24249
296	24251
296	24253
296	24255
295	24257
295	24259
294	24261
295	24263
295	24265
296	24267
298	24269
302	24271
305	24273
310	24275
315	24278
322	24280
329	24282
336	24284
344	24286
351	24288
357	24290
363	24292
367	24294
370	24296
371	24298
371	24300
370	24302
369	24304
367	24306
365	24308
362	24310
360	24312
357	24314
353	24316
350	24318
349	24320
345	24322
342	24324
340	24326
337	24328
334	24330
331	24332
329	24334
326	24336
324	24338
321	24340
319	24342
317	24344
315	24346
313	24348
311	24350
309	24352
307	24354
306	24356
304	24358
302	24360
301	24363
300	24365
298	24367
297	24369
296	24371
295	24373
294	24375
293	24377
292	24379
291	24381
291	24383
290	24385
289	24387
289	24389
288	24391
288	24393
287	24395
287	24397
286	24399
286	24401
286	24403
285	24406
286	24408
285	24410
285	24412
285	24414
285	24416
285	24418
285	24420
285	24422
285	24424
285	24426
285	24428
285	24430
286	24432
286	24434
286	24436
286	24438
287	24440
287	24442
288	24444
288	24446
288	24448
288	24450
289	24452
289	24454
290	24456
290	24458
291	24460
291	24462
292	24464
292	24466
293	24468
294	24470
294	24472
295	24474
296	24476
296	24478
297	24480
298	24482
299	24484
300	24486
301	24488
302	24491
303	24493
304	24495
305	24497
306	24499
307	24501
308	24503
309	24505
311	24507
312	24509
313	24511
314	24513
315	24515
316	24517
317	24519
318	24521
319	24523
320	24525
321	24527
321	24529
322	24531
323	24534
324	24536
324	24538
324	24540
325	24542
326	24544
326	24546
326	24548
326	24550
327	24552
326	24554
326	24556
326	24558
326	24560
326	24562
325	24564
324	24566
324	24568
323	24570
322	24572
321	24574
320	24576
319	24578
318	24580
317	24582
316	24584
314	24586
313	24588
312	24590
310	24592
309	24594
308	24596
307	24598
305	24600
304	24602
303	24604
301	24606
300	24608
299	24610
298	24612
297	24614
296	24616
295	24619
294	24621
293	24623
292	24625
292	24627
291	24629
290	24631
289	24633
289	24635
288	24637
288	24639
287	24641
287	24643
286	24645
286	24647
286	24649
285	24651
285	24653
285	24655
284	24657
284	24659
284	24662
284	24664
284	24666
284	24668
284	24670
284	24672
284	24674
284	24676
283	24678
284	24680
284	24682
284	24684
284	24686
284	24688
284	24690
284	24692
284	24694
284	24696
284	24698
284	24700
284	24702
284	24704
284	24706
284	24708
284	24710
284	24712
284	24714
284	24716
285	24718
285	24720
285	24722
285	24724
285	24726
285	24728
285	24730
285	24732
285	24734
285	24736
285	24738
286	24740
285	24742
286	24744
286	24747
286	24749
286	24751
286	24753
286	24755
286	24757
287	24759
287	24761
287	24763
287	24765
287	24767
287	24769
287	24771
287	24773
288	24775
288	24777
288	24779
288	24781
288	24783
288	24785
288	24787
289	24790
289	24792
289	24794
289	24796
289	24798
289	24800
290	24802
290	24804
290	24806
290	24808
290	24810
290	24812
290	24814
291	24816
291	24818
291	24820
291	24822
291	24824
292	24826
292	24828
292	24830
292	24832
293	24834
293	24836
294	24838
294	24840
295	24842
295	24844
296	24846
296	24848
296	24850
297	24852
297	24854
297	24856
298	24858
298	24860
298	24862
299	24864
300	24866
300	24868
301	24870
301	24872
302	24875
302	24877
302	24879
303	24881
303	24883
303	24885
303	24887
303	24889
304	24891
304	24893
304	24895
304	24897
304	24899
304	24901
303	24903
303	24905
303	24907
303	24909
303	24911
303	24913
302	24915
302	24918
302	24920
302	24922
301	24924
301	24926
300	24928
300	24930
300	24932
299	24934
299	24936
299	24938
299	24940
299	24942
298	24944
298	24946
298	24948
298	24950
297	24952
298	24954
297	24956
297	24958
297	24960
297	24962
297	24964
297	24966
296	24968
296	24970
296	24972
295	24974
295	24976
294	24978
294	24980
294	24982
295	24984
297	24986
300	24988
304	24990
308	24992
315	24994
321	24996
329	24998
336	25000
345	25003
352	25005
359	25007
364	25009
369	25011
373	25013
374	25015
375	25017
374	25019
373	25021
371	25023
370	25025
367	25027
365	25029
362	25031
359	25033
355	25035
352	25037
349	25039
345	25041
342	25043
339	25046
336	25048
334	25050
331	25052
328	25054
325	25056
323	25058
320	25060
318	25062
316	25064
313	25066
311	25068
310	25070
308	25072
306	25074
304	25076
302	25078
301	25080
299	25082
298	25084
297	25086
296	25088
295	25090
294	25092
292	25094
292	25096
291	25098
290	25100
289	25102
288	25104
287	25106
287	25108
287	25110
286	25112
285	25114
285	25116
284	25118
284	25120
284	25122
284	25124
284	25126
283	25128
283	25131
283	25133
283	25135
283	25137
283	25139
283	25141
283	25143
283	25145
284	25147
284	25149
284	25151
284	25153
284	25155
285	25157
285	25159
285	25161
286	25163
286	25165
286	25167
287	25169
287	25171
288	25174
288	25176
289	25178
289	25180
290	25182
291	25184
291	25186
292	25188
293	25190
293	25192
294	25194
295	25196
296	25198
297	25200
298	25202
299	25204
300	25206
301	25208
302	25210
303	25212
304	25214
304	25216
306	25218
307	25220
308	25222
309	25224
310	25226
311	25228
312	25230
314	25232
314	25234
315	25236
317	25238
317	25240
318	25242
319	25244
320	25246
321	25248
321	25250
322	25252
323	25254
323	25256
324	25259
325	25261
325	25263
325	25265
325	25267
325	25269
326	25271
326	25273
325	25275
325	25277
325	25279
324	25281
324	25283
323	25285
322	25287
321	25289
320	25291
319	25293
318	25295
317	25297
316	25299
314	25302
313	25304
312	25306
310	25308
309	25310
308	25312
306	25314
305	25316
304	25318
303	25320
301	25322
300	25324
299	25326
298	25328
297	25330
296	25332
295	25334
294	25336
293	25338
292	25340
291	25342
291	25344
290	25346
289	25348
289	25350
288	25352
288	25354
287	25356
287	25358
286	25360
286	25362
286	25364
285	25366
285	25368
285	25370
284	25372
284	25374
284	25376
284	25378
283	25380
283	25382
283	25384
283	25387
283	25389
283	25391
283	25393
283	25395
283	25397
283	25399
283	25401
283	25403
283	25405
283	25407
283	25409
283	25411
283	25413
283	25415
283	25417
283	25419
283	25421
283	25423
283	25425
283	25427
283	25430
283	25432
283	25434
284	25436
283	25438
283	25440
284	25442
284	25444
284	25446
284	25448
284	25450
284	25452
284	25454
284	25456
284	25458
285	25460
285	25462
285	25464
285	25466
285	25468
285	25470
285	25472
285	25474
286	25476
286	25478
286	25480
286	25482
286	25484
286	25486
287	25488
287	25490
287	25492
287	25494
287	25496
287	25498
288	25500
288	25502
288	25504
288	25506
288	25508
288	25510
288	25512
289	25515
289	25517
289	25519
289	25521
289	25523
290	25525
290	25527
290	25529
290	25531
290	25533
291	25535
291	25537
291	25539
291	25541
291	25543
291	25545
292	25547
292	25549
292	25551
293	25553
293	25555
293	25558
293	25560
294	25562
294	25564
295	25566
295	25568
296	25570
296	25572
297	25574
297	25576
297	25578
297	25580
298	25582
298	25584
299	25586
299	25588
299	25590
300	25592
300	25594
301	25596
301	25598
302	25600
302	25602
302	25604
303	25606
303	25608
303	25610
304	25612
304	25614
304	25616
304	25618
304	25620
304	25622
304	25624
304	25626
304	25628
304	25630
304	25632
304	25634
304	25636
304	25638
303	25640
303	25643
303	25645
302	25647
302	25649
302	25651
301	25653
301	25655
301	25657
300	25659
300	25661
300	25663
300	25665
299	25667
299	25669
299	25671
299	25673
299	25675
298	25677
298	25679
298	25681
298	25683
298	25686
298	25688
298	25690
297	25692
298	25694
297	25696
297	25698
296	25700
296	25702
295	25704
295	25706
294	25708
295	25710
296	25712
298	25714
302	25716
306	25718
311	25720
317	25722
325	25724
332	25726
336	25728
345	25730
353	25732
360	25734
366	25736
371	25738
375	25740
378	25742
378	25744
378	25746
377	25748
376	25750
374	25752
372	25754
370	25756
367	25758
364	25760
360	25762
357	25764
354	25766
350	25768
347	25771
344	25773
341	25775
338	25777
334	25779
332	25781
329	25783
326	25785
323	25787
321	25789
318	25791
316	25793
314	25795
312	25797
310	25799
308	25801
306	25803
304	25805
303	25807
301	25809
299	25811
298	25814
296	25816
295	25818
294	25820
293	25822
292	25824
291	25826
290	25828
289	25830
288	25832
288	25834
287	25836
286	25838
286	25840
285	25842
285	25844
284	25846
284	25848
284	25850
283	25852
283	25854
283	25856
283	25858
283	25860
283	25862
283	25864
283	25866
283	25868
283	25870
283	25872
283	25874
283	25876
283	25878
283	25880
284	25882
284	25884
285	25886
285	25888
285	25890
285	25892
286	25894
286	25896
287	25899
287	25901
288	25903
288	25905
289	25907
289	25909
290	25911
290	25913
291	25915
292	25917
293	25919
293	25921
294	25923
295	25925
296	25927
297	25929
298	25931
299	25933
300	25935
301	25937
302	25939
303	25942
304	25944
305	25946
307	25948
308	25950
309	25952
310	25954
311	25956
312	25958
314	25960
314	25962
316	25964
317	25966
318	25968
319	25970
320	25972
320	25974
321	25976
322	25978
323	25980
323	25982
324	25984
324	25986
325	25988
325	25990
325	25992
326	25994
326	25996
326	25998
326	26000
326	26002
325	26004
325	26006
325	26008
324	26010
324	26012
323	26014
322	26016
321	26018
320	26020
319	26022
318	26024
317	26027
315	26029
314	26031
313	26033
311	26035
310	26037
309	26039
308	26041
306	26043
305	26045
304	26047
302	26049
301	26051
300	26053
299	26055
298	26057
297	26059
296	26061
295	26063
294	26065
293	26067
292	26070
291	26072
291	26074
290	26076
289	26078
289	26080
288	26082
288	26084
287	26086
287	26088
286	26090
286	26092
285	26094
285	26096
285	26098
284	26100
284	26102
284	26104
284	26106
284	26108
283	26110
283	26112
283	26114
283	26116
283	26118
283	26120
283	26122
283	26124
283	26126
283	26128
283	26130
283	26132
283	26134
283	26136
283	26138
283	26140
283	26142
283	26144
283	26146
283	26148
283	26150
283	26152
283	26155
283	26157
283	26159
283	26161
283	26163
283	26165
283	26167
284	26169
284	26171
284	26173
284	26175
284	26177
284	26179
284	26181
284	26183
284	26185
285	26187
285	26189
285	26191
285	26193
285	26195
285	26198
285	26200
285	26202
286	26204
286	26206
286	26208
286	26210
286	26212
286	26214
287	26216
287	26218
287	26220
287	26222
287	26224
287	26226
287	26228
288	26230
288	26232
288	26234
288	26236
288	26238
288	26240
289	26242
289	26244
289	26246
289	26248
289	26250
289	26252
290	26254
290	26256
290	26258
290	26260
290	26262
290	26264
291	26266
291	26268
291	26270
291	26272
292	26274
292	26276
292	26278
293	26280
293	26283
294	26285
294	26287
295	26289
295	26291
295	26293
296	26295
296	26297
296	26299
297	26301
297	26303
298	26305
298	26307
298	26309
299	26311
299	26313
300	26315
300	26317
301	26319
301	26321
302	26323
302	26326
302	26328
303	26330
303	26332
303	26334
303	26336
304	26338
304	26340
304	26342
304	26344
304	26346
304	26348
304	26350
304	26352
303	26354
303	26356
303	26358
303	26360
302	26362
302	26364
302	26366
302	26368
302	26370
301	26372
301	26374
300	26376
300	26378
300	26380
300	26382
299	26384
299	26386
299	26388
299	26390
298	26392
298	26394
298	26396
298	26398
298	26400
298	26402
298	26404
298	26406
297	26408
297	26411
297	26413
297	26415
297	26417
297	26419
296	26421
295	26423
295	26425
294	26427
294	26429
295	26431
297	26433
299	26435
302	26437
307	26439
312	26441
319	26443
326	26445
335	26447
343	26449
351	26451
359	26454
365	26456
371	26458
375	26460
378	26462
379	26464
379	26466
379	26468
378	26470
376	26472
375	26474
372	26476
369	26478
366	26480
363	26482
359	26484
356	26486
353	26488
349	26490
346	26492
343	26494
341	26496
338	26498
335	26500
332	26502
329	26504
326	26506
323	26508
321	26510
318	26512
316	26514
314	26516
312	26518
310	26520
308	26522
306	26524
304	26526
302	26528
301	26530
299	26532
297	26534
296	26536
295	26539
294	26541
292	26543
292	26545
291	26547
289	26549
289	26551
288	26553
287	26555
287	26557
286	26559
285	26561
285	26563
284	26565
284	26567
284	26569
284	26571
284	26573
283	26575
283	26577
283	26579
282	26582
283	26584
283	26586
283	26588
282	26590
283	26592
283	26594
283	26596
283	26598
283	26600
284	26602
284	26604
284	26606
284	26608
285	26610
285	26612
285	26614
286	26616
287	26618
287	26620
287	26622
288	26624
288	26626
289	26628
289	26630
290	26632
290	26634
291	26636
292	26638
293	26640
294	26642
294	26644
295	26646
296	26648
297	26650
298	26652
299	26654
300	26656
301	26658
303	26660
303	26662
305	26664
306	26667
307	26669
308	26671
310	26673
311	26675
312	26677
313	26679
314	26681
315	26683
316	26685
317	26687
318	26689
319	26691
320	26693
321	26695
322	26697
322	26699
323	26701
323	26703
324	26705
325	26707
325	26710
325	26712
326	26714
326	26716
326	26718
326	26720
326	26722
326	26724
325	26726
325	26728
324	26730
324	26732
323	26734
322	26736
321	26738
320	26740
319	26742
318	26744
317	26746
316	26748
314	26750
314	26752
312	26754
311	26756
310	26758
308	26760
307	26762
305	26764
304	26766
303	26768
302	26770
301	26772
299	26774
298	26776
297	26778
296	26780
295	26782
294	26784
293	26786
292	26788
291	26790
291	26792
290	26795
289	26797
289	26799
288	26801
287	26803
287	26805
287	26807
286	26809
286	26811
286	26813
285	26815
285	26817
284	26819
284	26821
284	26823
284	26825
284	26827
283	26829
283	26831
283	26833
283	26835
283	26838
283	26840
283	26842
283	26844
283	26846
283	26848
283	26850
283	26852
283	26854
283	26856
283	26858
283	26860
283	26862
283	26864
283	26866
283	26868
283	26870
283	26872
283	26874
283	26876
284	26878
284	26880
284	26882
283	26884
284	26886
284	26888
284	26890
284	26892
284	26894
284	26896
285	26898
284	26900
284	26902
285	26904
285	26906
285	26908
285	26910
285	26912
285	26914
285	26916
286	26918
286	26920
286	26923
286	26925
286	26927
286	26929
286	26931
287	26933
287	26935
287	26937
287	26939
287	26941
288	26943
288	26945
288	26947
288	26949
288	26951
289	26953
288	26955
289	26957
289	26959
289	26961
289	26963
290	26966
290	26968
290	26970
290	26972
290	26974
290	26976
290	26978
291	26980
291	26982
291	26984
291	26986
291	26988
291	26990
292	26992
292	26994
292	26996
292	26998
292	27000
292	27002
292	27004
293	27006
293	27008
293	27010
293	27012
293	27014
294	27016
294	27018
294	27020
295	27022
295	27024
295	27026
296	27028
296	27030
297	27032
297	27034
297	27036
298	27038
298	27040
298	27042
298	27044
299	27046
299	27048
300	27051
301	27053
301	27055
301	27057
302	27059
302	27061
303	27063
303	27065
303	27067
304	27069
304	27071
304	27073
304	27075
304	27077
304	27079
305	27081
305	27083
305	27085
305	27087
305	27089
305	27091
304	27094
304	27096
304	27098
304	27100
304	27102
304	27104
303	27106
303	27108
302	27110
302	27112
302	27114
301	27116
301	27118
301	27120
301	27122
300	27124
300	27126
300	27128
300	27130
300	27132
300	27134
299	27136
300	27138
300	27140
299	27142
299	27144
299	27146
299	27148
299	27150
299	27152
299	27154
299	27156
298	27158
298	27160
297	27162
296	27164
296	27166
296	27168
296	27170
298	27172
300	27174
304	27176
308	27179
313	27181
319	27183
327	27185
335	27187
343	27189
352	27191
359	27193
366	27195
371	27197
376	27199
379	27201
381	27203
380	27205
380	27207
379	27209
377	27211
376	27213
373	27215
370	27217
367	27219
364	27222
360	27224
356	27226
353	27228
350	27230
346	27232
343	27234
340	27236
337	27238
334	27240
331	27242
328	27244
325	27246
323	27248
321	27250
318	27252
316	27254
314	27256
312	27258
310	27260
308	27262
307	27264
305	27266
304	27268
302	27270
301	27272
299	27274
298	27276
297	27278
295	27280
294	27282
293	27284
292	27286
291	27288
290	27290
290	27292
289	27294
288	27296
288	27298
287	27300
287	27302
286	27304
286	27307
286	27309
285	27311
285	27313
285	27315
285	27317
284	27319
284	27321
284	27323
284	27325
284	27327
284	27329
284	27331
284	27333
285	27335
285	27337
285	27339
285	27341
286	27343
286	27345
286	27347
286	27350
287	27352
287	27354
288	27356
288	27358
289	27360
289	27362
290	27364
290	27366
291	27368
292	27370
292	27372
293	27374
294	27376
295	27378
295	27380
296	27382
297	27384
298	27386
299	27388
300	27390
300	27392
301	27394
302	27396
303	27398
304	27400
305	27402
306	27404
307	27406
309	27408
310	27410
311	27412
312	27414
313	27416
315	27418
316	27420
317	27422
318	27424
319	27426
320	27428
321	27430
321	27432
322	27435
323	27437
324	27439
325	27441
325	27443
326	27445
327	27447
327	27449
327	27451
328	27453
328	27455
328	27457
328	27459
328	27461
328	27463
327	27465
327	27467
326	27469
326	27471
325	27473
324	27475
323	27478
322	27480
321	27482
320	27484
319	27486
318	27488
316	27490
315	27492
313	27494
312	27496
310	27498
309	27500
308	27502
306	27504
305	27506
304	27508
303	27510
301	27512
300	27514
299	27516
298	27518
297	27520
296	27522
295	27524
294	27526
293	27528
292	27530
291	27532
290	27534
290	27536
289	27538
289	27540
288	27542
288	27544
287	27546
287	27548
286	27550
285	27552
286	27554
285	27556
284	27558
284	27560
284	27563
284	27565
283	27567
283	27569
283	27571
283	27573
283	27575
283	27577
283	27579
283	27581
282	27583
282	27585
282	27587
282	27589
282	27591
282	27593
282	27595
282	27597
283	27599
282	27601
282	27603
282	27606
282	27608
282	27610
282	27612
282	27614
282	27616
282	27618
282	27620
282	27622
282	27624
283	27626
282	27628
283	27630
283	27632
283	27634
283	27636
283	27638
283	27640
283	27642
283	27644
283	27646
283	27648
284	27650
284	27652
284	27654
284	27656
284	27658
284	27660
285	27662
285	27664
285	27666
285	27668
285	27670
285	27672
286	27674
286	27676
286	27678
286	27680
286	27682
286	27684
286	27686
286	27688
287	27691
287	27693
287	27695
287	27697
287	27699
288	27701
288	27703
288	27705
288	27707
288	27709
289	27711
289	27713
289	27715
289	27717
289	27719
289	27721
290	27723
290	27725
290	27727
290	27729
290	27731
290	27734
290	27736
291	27738
291	27740
291	27742
292	27744
292	27746
292	27748
292	27750
292	27752
293	27754
293	27756
293	27758
294	27760
294	27762
295	27764
295	27766
296	27768
296	27770
297	27772
297	27774
297	27776
297	27778
298	27780
298	27782
298	27784
299	27786
300	27788
300	27790
300	27792
301	27794
301	27796
302	27798
302	27800
303	27802
303	27804
303	27806
304	27808
304	27810
304	27812
304	27814
304	27816
304	27819
304	27821
304	27823
304	27825
304	27827
304	27829
304	27831
303	27833
303	27835
303	27837
302	27839
302	27841
302	27843
301	27845
301	27847
301	27849
300	27851
300	27853
300	27855
299	27857
299	27859
299	27862
299	27864
298	27866
298	27868
298	27870
298	27872
298	27874
298	27876
297	27878
298	27880
297	27882
297	27884
297	27886
297	27888
296	27890
296	27892
296	27894
296	27896
294	27898
294	27900
294	27902
294	27904
295	27906
296	27908
298	27910
302	27912
306	27914
311	27916
317	27918
324	27920
332	27922
341	27924
349	27926
356	27928
363	27930
368	27932
373	27934
376	27936
377	27938
377	27940
376	27942
376	27944
374	27947
373	27949
371	27951
368	27953
365	27955
362	27957
358	27959
355	27961
351	27963
348	27965
345	27967
342	27969
338	27971
335	27973
332	27975
330	27977
327	27979
324	27981
321	27983
319	27985
317	27987
314	27990
312	27992
310	27994
308	27996
306	27998
304	28000
302	28002
301	28004
299	28006
298	28008
296	28010
295	28012
294	28014
293	28016
291	28018
291	28020
290	28022
289	28024
288	28026
287	28028
286	28030
286	28032
285	28034
285	28036
284	28038
284	28040
284	28042
283	28044
283	28046
283	28048
283	28050
282	28052
282	28054
282	28056
282	28058
282	28060
282	28062
282	28064
282	28066
282	28068
282	28070
283	28072
283	28075
283	28077
284	28079
284	28081
284	28083
284	28085
285	28087
285	28089
286	28091
286	28093
287	28095
287	28097
287	28099
288	28101
289	28103
289	28105
290	28107
291	28109
291	28111
292	28113
293	28115
294	28118
295	28120
295	28122
296	28124
297	28126
298	28128
299	28130
300	28132
301	28134
303	28136
304	28138
305	28140
306	28142
307	28144
308	28146
310	28148
311	28150
312	28152
313	28154
314	28156
315	28158
316	28160
317	28162
318	28164
319	28166
320	28168
321	28170
322	28172
322	28174
323	28176
324	28178
324	28180
325	28182
325	28184
326	28186
326	28188
326	28190
326	28192
326	28194
327	28196
326	28198
326	28200
326	28203
325	28205
324	28207
324	28209
323	28211
322	28213
321	28215
320	28217
319	28219
318	28221
316	28223
315	28225
314	28227
312	28229
311	28231
309	28233
308	28235
307	28237
305	28239
304	28241
303	28243
301	28246
300	28248
299	28250
298	28252
297	28254
296	28256
295	28258
294	28260
293	28262
292	28264
292	28266
290	28268
290	28270
289	28272
288	28274
288	28276
287	28278
287	28280
287	28282
286	28284
286	28286
285	28288
285	28290
285	28292
284	28294
284	28296
284	28298
284	28300
283	28302
283	28304
283	28306
283	28308
283	28310
283	28312
283	28314
283	28316
283	28318
283	28320
283	28322
283	28324
283	28326
283	28328
283	28331
283	28333
283	28335
283	28337
283	28339
283	28341
283	28343
283	28345
283	28347
283	28349
283	28351
283	28353
283	28355
283	28357
283	28359
283	28361
284	28363
284	28365
284	28367
284	28369
284	28371
284	28374
284	28376
284	28378
284	28380
285	28382
285	28384
285	28386
285	28388
285	28390
285	28392
285	28394
286	28396
286	28398
286	28400
286	28402
286	28404
287	28406
287	28408
287	28410
287	28412
287	28414
287	28416
288	28418
288	28420
288	28422
288	28424
288	28426
288	28428
288	28430
289	28432
289	28434
289	28436
289	28438
289	28440
290	28442
290	28444
290	28446
290	28448
290	28450
291	28452
291	28454
291	28456
291	28459
291	28461
291	28463
291	28465
291	28467
292	28469
292	28471
292	28473
292	28475
292	28477
293	28479
293	28481
293	28483
294	28485
294	28487
295	28489
295	28491
296	28493
296	28495
297	28497
297	28499
297	28502
298	28504
298	28506
298	28508
298	28510
299	28512
299	28514
300	28516
300	28518
301	28520
301	28522
302	28524
302	28526
303	28528
303	28530
303	28532
303	28534
304	28536
304	28538
304	28540
304	28542
304	28544
304	28546
304	28548
304	28550
304	28552
304	28554
304	28556
304	28558
304	28560
304	28562
303	28564
303	28566
303	28568
303	28570
302	28572
302	28574
302	28576
301	28578
301	28580
300	28582
300	28584
300	28587
300	28589
300	28591
299	28593
299	28595
299	28597
298	28599
299	28601
298	28603
298	28605
298	28607
298	28609
298	28611
298	28613
298	28615
298	28617
297	28619
297	28621
296	28623
296	28625
295	28627
295	28630
294	28632
294	28634
295	28636
296	28638
298	28640
302	28642
306	28644
311	28646
317	28648
325	28650
333	28652
341	28654
350	28656
358	28658
365	28660
371	28662
375	28664
378	28666
380	28668
380	28670
380	28672
379	28674
379	28676
377	28678
375	28680
373	28682
370	28684
366	28686
363	28688
359	28690
356	28692
352	28694
349	28696
346	28698
342	28700
339	28702
336	28704
333	28706
330	28708
327	28710
324	28712
322	28715
319	28717
317	28719
314	28721
312	28723
310	28725
308	28727
306	28729
304	28731
303	28733
301	28735
299	28737
298	28739
296	28741
295	28743
294	28745
293	28747
291	28749
291	28751
290	28753
289	28755
288	28758
287	28760
286	28762
286	28764
285	28766
284	28768
284	28770
284	28772
283	28774
283	28776
283	28778
282	28780
282	28782
282	28784
282	28786
282	28788
282	28790
282	28792
282	28794
282	28796
282	28798
282	28800
282	28802
282	28804
282	28806
283	28808
283	28810
283	28812
284	28814
284	28816
284	28818
285	28820
285	28822
286	28824
286	28826
286	28828
287	28830
288	28832
288	28834
289	28836
289	28838
290	28840
291	28843
291	28845
292	28847
293	28849
294	28851
295	28853
296	28855
297	28857
298	28859
299	28861
300	28863
301	28865
302	28867
303	28869
304	28871
306	28873
307	28875
308	28877
309	28879
310	28881
311	28883
313	28886
314	28888
315	28890
316	28892
317	28894
318	28896
319	28898
319	28900
320	28902
321	28904
322	28906
322	28908
323	28910
324	28912
324	28914
325	28916
325	28918
325	28920
325	28922
325	28924
325	28926
325	28928
325	28930
324	28932
324	28934
323	28936
323	28938
322	28940
321	28942
320	28944
319	28946
318	28948
316	28950
315	28952
314	28954
312	28956
311	28958
310	28960
308	28962
307	28964
306	28966
304	28968
303	28971
302	28973
301	28975
299	28977
298	28979
297	28981
296	28983
295	28985
294	28987
293	28989
292	28991
291	28993
290	28995
289	28997
288	28999
288	29001
287	29003
286	29005
286	29007
285	29009
284	29011
284	29014
284	29016
283	29018
283	29020
283	29022
282	29024
282	29026
282	29028
282	29030
282	29032
282	29034
281	29036
281	29038
281	29040
281	29042
281	29044
281	29046
281	29048
281	29050
281	29052
281	29054
281	29056
281	29058
281	29060
281	29062
281	29064
281	29066
281	29068
281	29070
281	29072
281	29074
281	29076
281	29078
281	29080
282	29082
282	29084
282	29086
282	29088
282	29090
282	29092
282	29094
282	29096
282	29099
282	29101
282	29103
283	29105
282	29107
283	29109
283	29111
283	29113
283	29115
283	29117
283	29119
283	29121
284	29123
284	29125
284	29127
284	29129
284	29131
284	29133
284	29135
285	29137
285	29139
285	29142
285	29144
285	29146
285	29148
286	29150
286	29152
286	29154
286	29156
286	29158
287	29160
287	29162
287	29164
287	29166
287	29168
288	29170
288	29172
288	29174
288	29176
288	29178
288	29180
288	29182
289	29184
289	29186
289	29188
289	29190
289	29192
289	29194
289	29196
289	29198
290	29200
290	29202
290	29204
290	29206
290	29208
290	29210
291	29212
291	29214
291	29216
292	29218
292	29220
292	29222
293	29224
293	29227
294	29229
294	29231
294	29233
295	29235
295	29237
295	29239
295	29241
296	29243
296	29245
297	29247
297	29249
297	29251
298	29253
299	29255
299	29257
299	29259
300	29261
301	29263
301	29265
301	29267
302	29270
302	29272
303	29274
302	29276
303	29278
303	29280
303	29282
303	29284
303	29286
303	29288
303	29290
303	29292
303	29294
303	29296
303	29298
303	29300
303	29302
302	29304
302	29306
302	29308
301	29310
301	29312
301	29314
301	29316
300	29318
300	29320
300	29322
299	29324
299	29326
299	29328
298	29330
298	29332
298	29334
298	29336
298	29338
298	29340
297	29342
297	29344
297	29346
297	29348
297	29350
297	29352
297	29355
296	29357
296	29359
296	29361
296	29363
295	29365
294	29367
294	29369
294	29371
294	29373
295	29375
298	29377
301	29379
304	29381
309	29383
315	29385
321	29387
329	29389
336	29391
344	29393
352	29395
358	29398
363	29400
367	29402
369	29404
371	29406
370	29408
368	29410
366	29412
364	29414
361	29416
359	29418
356	29420
353	29422
350	29424
346	29426
343	29428
340	29430
337	29432
334	29434
331	29436
328	29438
327	29440
325	29442
322	29444
320	29446
318	29448
316	29450
314	29452
312	29454
310	29456
308	29458
307	29460
305	29462
304	29464
302	29466
301	29468
299	29470
298	29472
297	29474
296	29476
295	29478
294	29480
293	29483
292	29485
291	29487
291	29489
290	29491
289	29493
288	29495
288	29497
288	29499
287	29501
287	29503
286	29505
286	29507
286	29509
286	29511
286	29513
286	29515
285	29517
285	29519
285	29521
285	29523
286	29526
285	29528
285	29530
285	29532
286	29534
286	29536
286	29538
286	29540
287	29542
287	29544
287	29546
288	29548
288	29550
288	29552
288	29554
289	29556
289	29558
290	29560
290	29562
290	29564
291	29566
291	29568
292	29570
293	29572
293	29574
294	29576
295	29578
295	29580
296	29582
297	29584
298	29586
299	29588
299	29590
300	29592
301	29594
302	29596
303	29598
304	29600
305	29602
306	29604
307	29606
309	29608
310	29611
311	29613
312	29615
313	29617
314	29619
315	29621
316	29623
318	29625
319	29627
319	29629
320	29631
321	29633
322	29635
323	29637
323	29639
324	29641
325	29643
325	29645
326	29647
326	29649
327	29651
327	29654
327	29656
327	29658
328	29660
327	29662
327	29664
327	29666
327	29668
326	29670
326	29672
325	29674
325	29676
324	29678
323	29680
322	29682
321	29684
320	29686
319	29688
318	29690
316	29692
315	29694
314	29696
313	29698
311	29700
310	29702
309	29704
307	29706
306	29708
304	29710
303	29712
302	29714
301	29716
300	29718
298	29720
297	29722
296	29724
295	29726
294	29728
294	29730
293	29732
292	29734
291	29736
290	29739
290	29741
289	29743
288	29745
288	29747
287	29749
287	29751
286	29753
286	29755
286	29757
285	29759
285	29761
285	29763
284	29765
284	29767
284	29769
284	29771
284	29773
284	29775
284	29777
283	29779
283	29782
283	29784
283	29786
283	29788
283	29790
283	29792
283	29794
283	29796
283	29798
283	29800
283	29802
284	29804
283	29806
284	29808
284	29810
284	29812
284	29814
284	29816
284	29818
284	29820
284	29822
284	29824
284	29826
284	29828
284	29830
284	29832
284	29834
285	29836
285	29838
285	29840
285	29842
285	29844
285	29846
286	29848
286	29850
286	29852
286	29854
286	29856
286	29858
286	29860
287	29862
287	29864
287	29867
287	29869
287	29871
287	29873
288	29875
288	29877
288	29879
288	29881
288	29883
289	29885
288	29887
288	29889
289	29891
289	29893
289	29895
289	29897
289	29899
290	29901
290	29903
290	29905
290	29907
290	29910
291	29912
291	29914
291	29916
291	29918
291	29920
291	29922
292	29924
292	29926
292	29928
292	29930
292	29932
293	29934
293	29936
293	29938
294	29940
294	29942
295	29944
295	29946
296	29948
296	29950
296	29952
297	29954
297	29956
297	29958
298	29960
298	29962
298	29964
299	29966
299	29968
300	29970
300	29972
301	29974
301	29976
302	29978
302	29980
302	29982
303	29984
303	29986
303	29988
303	29990
304	29992
304	29995
304	29997
304	29999
304	30001
304	30003
304	30005
304	30007
304	30009
304	30011
304	30013
304	30015
303	30017
303	30019
303	30021
303	30023
302	30025
302	30027
302	30029
301	30031
301	30033
300	30035
300	30038
300	30040
300	30042
300	30044
299	30046
299	30048
299	30050
299	30052
298	30054
299	30056
298	30058
298	30060
298	30062
298	30064
298	30066
297	30068
297	30070
297	30072
297	30074
297	30076
296	30078
296	30080
296	30082
295	30084
295	30086
295	30088
297	30090
299	30092
302	30094
305	30096
310	30098
315	30100
321	30102
328	30104
335	30106
343	30108
350	30110
356	30112
362	30114
365	30116
368	30118
370	30120
369	30123
367	30125
365	30127
363	30129
361	30131
358	30133
356	30135
353	30137
349	30139
346	30141
343	30143
340	30145
337	30147
334	30149
331	30151
329	30153
327	30155
324	30157
322	30159
320	30161
317	30163
316	30166
313	30168
312	30170
310	30172
308	30174
307	30176
305	30178
304	30180
303	30182
301	30184
300	30186
298	30188
298	30190
296	30192
296	30194
295	30196
294	30198
293	30200
292	30202
292	30204
291	30206
291	30208
290	30210
290	30212
290	30214
289	30216
289	30218
288	30220
288	30222
288	30224
288	30226
287	30228
287	30230
287	30232
287	30234
287	30236
287	30238
287	30240
287	30242
287	30244
287	30246
288	30248
288	30251
288	30253
288	30255
289	30257
289	30259
289	30261
290	30263
290	30265
290	30267
291	30269
291	30271
291	30273
292	30275
292	30277
293	30279
293	30281
294	30283
294	30285
295	30287
295	30289
296	30291
297	30294
297	30296
298	30298
299	30300
299	30302
300	30304
301	30306
302	30308
303	30310
304	30312
305	30314
306	30316
307	30318
308	30320
309	30322
311	30324
312	30326
313	30328
314	30330
315	30332
316	30334
317	30336
318	30338
319	30340
320	30342
320	30344
321	30346
322	30348
323	30350
324	30352
325	30354
325	30356
326	30358
326	30360
327	30362
327	30364
328	30366
328	30368
328	30370
328	30372
329	30374
328	30376
328	30379
328	30381
328	30383
327	30385
326	30387
326	30389
325	30391
324	30393
324	30395
322	30397
321	30399
320	30401
319	30403
318	30405
316	30407
315	30409
314	30411
312	30413
311	30415
309	30417
308	30419
307	30422
306	30424
304	30426
303	30428
302	30430
300	30432
299	30434
298	30436
297	30438
296	30440
295	30442
294	30444
293	30446
293	30448
292	30450
291	30452
290	30454
290	30456
289	30458
289	30460
288	30462
288	30464
287	30466
287	30468
287	30470
286	30472
286	30474
286	30476
286	30478
285	30480
285	30482
285	30484
285	30486
285	30488
285	30490
284	30492
284	30494
284	30496
284	30498
284	30500
284	30502
284	30504
285	30507
284	30509
284	30511
285	30513
285	30515
285	30517
285	30519
285	30521
285	30523
285	30525
285	30527
285	30529
285	30531
285	30533
285	30535
285	30537
285	30539
286	30541
286	30543
286	30545
286	30547
286	30550
286	30552
286	30554
286	30556
286	30558
286	30560
287	30562
286	30564
287	30566
287	30568
287	30570
287	30572
287	30574
287	30576
288	30578
288	30580
288	30582
288	30584
288	30586
288	30588
288	30590
288	30592
288	30594
289	30596
289	30598
289	30600
289	30602
289	30604
289	30606
290	30608
290	30610
290	30612
290	30614
290	30616
290	30618
290	30620
291	30622
291	30624
291	30626
291	30628
292	30630
291	30632
291	30635
292	30637
292	30639
292	30641
292	30643
292	30645
292	30647
292	30649
293	30651
293	30653
293	30655
293	30657
293	30659
293	30661
293	30663
294	30665
294	30667
294	30669
294	30671
295	30673
295	30675
296	30678
296	30680
297	30682
297	30684
297	30686
298	30688
298	30690
298	30692
299	30694
299	30696
299	30698
300	30700
300	30702
301	30704
301	30706
301	30708
302	30710
302	30712
303	30714
303	30716
304	30718
304	30720
304	30722
304	30724
304	30726
304	30728
305	30730
305	30732
305	30734
305	30736
305	30738
305	30740
305	30742
305	30744
305	30746
305	30748
305	30750
304	30752
304	30754
304	30756
304	30758
303	30760
303	30763
302	30765
302	30767
302	30769
302	30771
301	30773
301	30775
301	30777
300	30779
300	30781
300	30783
299	30785
299	30787
299	30789
299	30791
299	30793
299	30795
299	30797
299	30799
299	30801
298	30803
298	30806
298	30808
298	30810
298	30812
297	30814
297	30816
296	30818
296	30820
296	30822
296	30824
297	30826
299	30828
302	30830
306	30832
310	30834
316	30836
322	30838
329	30840
336	30842
344	30844
352	30846
355	30848
361	30850
366	30852
370	30854
372	30856
373	30858
373	30860
371	30862
370	30864
369	30866
366	30868
364	30870
361	30872
358	30874
355	30876
351	30878
348	30880
345	30882
342	30884
339	30886
336	30888
334	30891
331	30893
328	30895
326	30897
323	30899
321	30901
319	30903
317	30905
314	30907
312	30909
310	30911
309	30913
307	30915
305	30917
304	30919
302	30921
301	30923
299	30925
298	30927
297	30929
296	30931
294	30934
294	30936
293	30938
292	30940
291	30942
290	30944
290	30946
289	30948
288	30950
288	30952
288	30954
287	30956
287	30958
286	30960
286	30962
286	30964
286	30966
286	30968
286	30970
285	30972
285	30974
285	30976
285	30978
285	30980
285	30982
285	30984
286	30986
286	30988
286	30990
286	30992
286	30994
287	30996
287	30998
287	31000
287	31002
288	31004
288	31006
288	31008
289	31010
289	31012
290	31014
290	31016
291	31019
291	31021
292	31023
292	31025
293	31027
294	31029
294	31031
295	31033
296	31035
297	31037
297	31039
298	31041
299	31043
300	31045
301	31047
302	31049
303	31051
304	31053
305	31055
306	31057
307	31059
309	31062
310	31064
311	31066
312	31068
313	31070
314	31072
315	31074
317	31076
318	31078
319	31080
320	31082
321	31084
322	31086
322	31088
323	31090
324	31092
325	31094
325	31096
326	31098
327	31100
327	31102
327	31104
328	31106
328	31108
328	31110
328	31112
328	31114
328	31116
328	31118
328	31120
327	31122
327	31124
326	31126
325	31128
324	31130
323	31132
322	31134
321	31136
320	31138
319	31140
318	31142
317	31144
315	31147
314	31149
312	31151
311	31153
309	31155
308	31157
307	31159
305	31161
304	31163
303	31165
301	31167
300	31169
299	31171
298	31173
297	31175
296	31177
295	31179
294	31181
293	31183
292	31185
291	31187
291	31190
290	31192
289	31194
288	31196
288	31198
287	31200
287	31202
286	31204
286	31206
286	31208
285	31210
285	31212
284	31214
284	31216
284	31218
284	31220
284	31222
284	31224
283	31226
283	31228
283	31230
283	31232
283	31234
283	31236
283	31238
283	31240
283	31242
283	31244
283	31246
283	31248
283	31250
283	31252
283	31254
283	31256
283	31258
283	31260
284	31262
284	31264
284	31266
284	31268
284	31270
284	31272
284	31275
284	31277
284	31279
284	31281
284	31283
284	31285
285	31287
285	31289
285	31291
285	31293
285	31295
285	31297
285	31299
285	31301
285	31303
286	31305
286	31307
286	31309
286	31311
286	31313
286	31315
286	31318
286	31320
287	31322
286	31324
287	31326
287	31328
287	31330
287	31332
287	31334
287	31336
288	31338
288	31340
288	31342
288	31344
288	31346
288	31348
289	31350
289	31352
289	31354
289	31356
289	31358
290	31360
290	31362
290	31364
290	31366
290	31368
291	31370
291	31372
290	31374
291	31376
291	31378
291	31380
291	31382
292	31384
292	31386
292	31388
292	31390
292	31392
292	31394
292	31396
293	31398
293	31400
293	31403
293	31405
293	31407
294	31409
294	31411
294	31413
294	31415
294	31417
294	31419
295	31421
295	31423
295	31425
295	31427
296	31429
296	31431
297	31433
297	31435
298	31437
298	31439
298	31441
299	31443
299	31446
299	31448
299	31450
300	31452
300	31454
301	31456
301	31458
302	31460
302	31462
303	31464
303	31466
303	31468
304	31470
304	31472
304	31474
304	31476
305	31478
305	31480
305	31482
305	31484
305	31486
305	31488
305	31490
305	31492
305	31494
305	31496
305	31498
305	31500
305	31502
305	31504
304	31506
305	31508
304	31510
304	31512
303	31514
303	31516
303	31518
302	31520
302	31522
302	31524
302	31526
301	31528
301	31531
300	31533
300	31535
300	31537
300	31539
300	31541
299	31543
300	31545
299	31547
299	31549
299	31551
299	31553
298	31555
298	31557
298	31559
298	31561
298	31563
297	31565
297	31567
296	31569
296	31571
295	31574
295	31576
296	31578
297	31580
299	31582
302	31584
306	31586
311	31588
317	31590
323	31592
331	31594
339	31596
347	31598
355	31600
361	31602
367	31604
371	31606
375	31608
377	31610
377	31612
376	31614
375	31616
374	31618
373	31620
371	31622
368	31624
366	31626
362	31628
359	31630
356	31632
352	31634
349	31636
346	31638
343	31640
339	31642
337	31644
333	31646
331	31648
328	31650
325	31652
323	31654
320	31656
318	31659
316	31661
313	31663
311	31665
309	31667
307	31669
306	31671
304	31673
302	31675
301	31677
299	31679
298	31681
297	31683
295	31685
294	31687
293	31689
292	31691
291	31693
290	31695
289	31697
288	31699
288	31702
287	31704
287	31706
286	31708
286	31710
285	31712
285	31714
284	31716
284	31718
284	31720
284	31722
284	31724
284	31726
284	31728
283	31730
283	31732
284	31734
284	31736
284	31738
284	31740
284	31742
284	31744
284	31746
284	31748
285	31750
284	31752
285	31754
285	31756
286	31758
286	31760
286	31762
287	31764
287	31766
288	31768
288	31770
289	31772
289	31774
290	31776
290	31778
291	31780
292	31782
293	31784
293	31787
294	31789
295	31791
295	31793
297	31795
297	31797
298	31799
299	31801
301	31803
301	31805
302	31807
304	31809
305	31811
306	31813
307	31815
308	31817
309	31819
310	31821
312	31823
313	31825
314	31827
315	31830
316	31832
317	31834
318	31836
319	31838
320	31840
321	31842
322	31844
323	31846
323	31848
324	31850
325	31852
325	31854
326	31856
326	31858
326	31860
327	31862
327	31864
327	31866
327	31868
327	31870
327	31872
326	31874
326	31876
325	31878
325	31880
324	31882
323	31884
323	31886
322	31888
320	31890
319	31892
318	31894
317	31896
315	31898
314	31900
313	31902
311	31904
310	31906
309	31908
307	31910
306	31912
304	31915
303	31917
302	31919
301	31921
299	31923
298	31925
297	31927
296	31929
295	31931
294	31933
293	31935
292	31937
291	31939
291	31941
290	31943
289	31945
288	31947
287	31949
287	31951
286	31953
286	31955
285	31958
285	31960
285	31962
284	31964
284	31966
284	31968
283	31970
283	31972
283	31974
283	31976
283	31978
282	31980
282	31982
282	31984
282	31986
282	31988
282	31990
282	31992
282	31994
282	31996
282	31998
282	32000
282	32002
282	32004
282	32006
282	32008
282	32010
282	32012
282	32014
282	32016
283	32018
283	32020
283	32022
283	32024
283	32026
283	32028
283	32030
283	32032
283	32034
283	32036
283	32038
283	32040
283	32043
284	32045
284	32047
284	32049
284	32051
284	32053
284	32055
284	32057
284	32059
285	32061
285	32063
285	32065
285	32067
285	32069
285	32071
285	32073
285	32075
286	32077
286	32079
286	32081
286	32083
286	32086
286	32088
287	32090
287	32092
287	32094
287	32096
287	32098
287	32100
288	32102
288	32104
288	32106
288	32108
288	32110
288	32112
289	32114
289	32116
289	32118
289	32120
289	32122
289	32124
290	32126
290	32128
290	32130
290	32132
290	32134
291	32136
290	32138
291	32140
291	32142
291	32144
291	32146
292	32148
292	32150
292	32152
292	32154
292	32156
293	32158
292	32160
293	32162
293	32164
293	32166
293	32168
294	32171
294	32173
294	32175
295	32177
295	32179
296	32181
296	32183
296	32185
297	32187
297	32189
298	32191
298	32193
298	32195
298	32197
299	32199
299	32201
300	32203
300	32205
301	32207
301	32209
302	32211
302	32214
303	32216
303	32218
303	32220
304	32222
304	32224
304	32226
304	32228
304	32230
305	32232
305	32234
305	32236
305	32238
305	32240
305	32242
305	32244
305	32246
304	32248
305	32250
304	32252
304	32254
304	32256
304	32258
304	32260
304	32262
303	32264
303	32266
302	32268
302	32270
302	32272
301	32274
301	32276
301	32278
301	32280
300	32282
300	32284
300	32286
300	32288
299	32290
299	32292
299	32294
299	32296
299	32299
299	32301
299	32303
298	32305
298	32307
298	32309
298	32311
297	32313
297	32315
297	32317
296	32319
295	32321
295	32323
295	32325
296	32327
297	32329
299	32331
302	32333
306	32335
312	32337
318	32339
325	32342
333	32344
341	32346
350	32348
358	32350
364	32352
370	32354
374	32356
378	32358
379	32360
379	32362
378	32364
378	32366
377	32368
375	32370
372	32372
369	32374
367	32376
363	32378
360	32380
356	32382
354	32384
351	32386
347	32388
344	32390
341	32392
338	32394
335	32396
332	32398
329	32400
326	32402
324	32404
321	32406
319	32408
316	32410
314	32412
312	32414
310	32416
308	32418
306	32420
304	32422
303	32424
301	32427
299	32429
298	32431
296	32433
295	32435
294	32437
293	32439
291	32441
291	32443
290	32445
289	32447
288	32449
288	32451
287	32453
286	32455
286	32457
285	32459
285	32461
284	32463
284	32465
283	32467
283	32470
283	32472
283	32474
282	32476
282	32478
282	32480
282	32482
282	32484
282	32486
282	32488
283	32490
283	32492
283	32494
283	32496
284	32498
284	32500
284	32502
284	32504
285	32506
285	32508
285	32510
285	32512
286	32514
287	32516
287	32518
287	32520
288	32522
289	32524
289	32526
290	32528
290	32530
291	32532
292	32534
293	32536
293	32538
294	32540
295	32542
296	32544
297	32546
298	32548
299	32550
300	32552
301	32555
302	32557
304	32559
305	32561
306	32563
307	32565
308	32567
309	32569
311	32571
312	32573
313	32575
314	32577
315	32579
316	32581
317	32583
318	32585
320	32587
321	32589
321	32591
322	32593
323	32595
324	32598
325	32600
325	32602
326	32604
326	32606
327	32608
327	32610
327	32612
327	32614
327	32616
327	32618
327	32620
327	32622
326	32624
326	32626
325	32628
324	32630
324	32632
323	32634
322	32636
321	32638
320	32640
319	32642
318	32644
316	32646
315	32648
314	32650
312	32652
311	32654
309	32656
308	32658
307	32660
305	32662
304	32664
302	32666
301	32668
300	32670
298	32672
297	32674
296	32676
295	32678
294	32680
293	32683
292	32685
291	32687
290	32689
289	32691
289	32693
288	32695
287	32697
287	32699
286	32701
286	32703
285	32705
285	32707
284	32709
284	32711
283	32713
283	32715
283	32717
283	32719
282	32721
282	32723
282	32726
282	32728
282	32730
282	32732
282	32734
282	32736
282	32738
282	32740
281	32742
281	32744
281	32746
281	32748
281	32750
282	32752
281	32754
282	32756
281	32758
282	32760
282	32762
282	32764
282	32766
282	32768
282	32770
282	32772
282	32774
282	32776
282	32778
282	32780
282	32782
282	32784
282	32786
283	32788
283	32790
283	32792
283	32794
283	32796
283	32798
283	32800
283	32802
283	32804
284	32806
284	32808
284	32811
284	32813
284	32815
284	32817
284	32819
284	32821
285	32823
285	32825
285	32827
285	32829
285	32831
286	32833
286	32835
286	32837
286	32839
286	32841
286	32843
287	32845
287	32847
287	32849
287	32851
287	32854
287	32856
288	32858
288	32860
288	32862
288	32864
288	32866
289	32868
289	32870
289	32872
289	32874
289	32876
289	32878
290	32880
290	32882
290	32884
291	32886
291	32888
291	32890
291	32892
291	32894
291	32896
291	32898
292	32900
292	32902
293	32904
293	32906
294	32908
294	32910
294	32912
295	32914
295	32916
296	32918
296	32920
296	32922
297	32924
297	32926
297	32928
298	32930
298	32932
299	32934
300	32936
300	32939
300	32941
301	32943
301	32945
302	32947
302	32949
302	32951
303	32953
303	32955
303	32957
303	32959
303	32961
303	32963
303	32965
303	32967
303	32969
303	32971
303	32973
303	32975
303	32977
303	32979
302	32982
302	32984
302	32986
302	32988
301	32990
301	32992
301	32994
300	32996
300	32998
300	33000
299	33002
299	33004
299	33006
299	33008
299	33010
298	33012
298	33014
298	33016
298	33018
298	33020
298	33022
298	33024
297	33026
297	33028
297	33030
297	33032
297	33034
297	33036
297	33038
296	33040
296	33042
295	33044
295	33046
294	33048
294	33050
294	33052
295	33054
297	33056
300	33058
303	33060
307	33062
313	33064
320	33067
327	33069
335	33071
344	33073
352	33075
359	33077
366	33079
371	33081
374	33083
377	33085
378	33087
377	33089
377	33091
376	33093
374	33095
372	33097
370	33099
367	33101
364	33103
360	33105
357	33107
353	33110
350	33112
347	33114
343	33116
340	33118
337	33120
334	33122
331	33124
328	33126
325	33128
323	33130
320	33132
318	33134
315	33136
313	33138
311	33140
309	33142
307	33144
305	33146
303	33148
302	33150
301	33152
299	33154
298	33156
296	33158
295	33160
294	33162
292	33164
292	33166
290	33168
290	33170
289	33172
288	33174
287	33176
287	33178
286	33180
285	33182
285	33184
284	33186
284	33188
284	33190
283	33192
283	33195
283	33197
282	33199
282	33201
282	33203
282	33205
282	33207
282	33209
282	33211
283	33213
283	33215
283	33217
283	33219
283	33221
283	33223
283	33225
284	33227
284	33229
284	33231
285	33233
285	33235
285	33238
286	33240
286	33242
287	33244
287	33246
288	33248
288	33250
289	33252
290	33254
290	33256
291	33258
292	33260
293	33262
293	33264
294	33266
295	33268
296	33270
297	33272
298	33274
299	33276
300	33278
301	33280
302	33282
303	33284
304	33286
305	33288
306	33290
307	33292
309	33294
310	33296
311	33298
312	33300
314	33302
315	33304
316	33306
317	33308
318	33310
319	33312
320	33314
321	33316
322	33318
323	33320
323	33323
324	33325
325	33327
325	33329
326	33331
326	33333
326	33335
327	33337
326	33339
327	33341
327	33343
326	33345
326	33347
326	33349
325	33351
325	33353
324	33355
323	33357
322	33359
321	33361
320	33363
319	33366
318	33368
316	33370
315	33372
313	33374
312	33376
311	33378
309	33380
308	33382
306	33384
305	33386
303	33388
302	33390
301	33392
299	33394
298	33396
297	33398
296	33400
295	33402
294	33404
293	33406
292	33408
291	33410
290	33412
289	33414
288	33416
288	33418
287	33420
286	33422
286	33424
285	33426
284	33428
284	33430
283	33432
283	33434
283	33436
282	33438
282	33440
282	33442
282	33444
281	33446
281	33448
281	33451
281	33453
281	33455
281	33457
281	33459
280	33461
281	33463
281	33465
280	33467
280	33469
281	33471
281	33473
281	33475
281	33477
281	33479
281	33481
281	33483
281	33485
281	33487
281	33489
281	33491
281	33494
281	33496
281	33498
282	33500
282	33502
282	33504
282	33506
282	33508
282	33510
282	33512
282	33514
282	33516
282	33518
283	33520
283	33522
283	33524
283	33526
283	33528
283	33530
283	33532
283	33534
284	33536
284	33538
284	33540
284	33542
284	33544
284	33546
285	33548
285	33550
285	33552
285	33554
285	33556
285	33558
285	33560
286	33562
286	33564
286	33566
286	33568
286	33570
287	33572
287	33574
287	33576
287	33579
287	33581
288	33583
288	33585
288	33587
288	33589
288	33591
288	33593
289	33595
289	33597
289	33599
289	33601
289	33603
290	33605
290	33607
290	33609
290	33611
290	33613
291	33615
291	33617
292	33619
292	33622
293	33624
294	33626
294	33628
294	33630
295	33632
295	33634
295	33636
296	33638
296	33640
296	33642
296	33644
297	33646
297	33648
298	33650
299	33652
299	33654
299	33656
300	33658
300	33660
301	33662
301	33664
301	33666
302	33668
302	33670
302	33672
302	33674
303	33676
303	33678
303	33680
303	33682
303	33684
303	33686
302	33688
302	33690
302	33692
302	33694
302	33696
302	33698
302	33700
301	33702
301	33704
301	33707
300	33709
300	33711
300	33713
299	33715
299	33717
299	33719
299	33721
298	33723
298	33725
298	33727
298	33729
298	33731
297	33733
297	33735
297	33737
297	33739
297	33741
297	33743
297	33745
297	33747
296	33750
296	33752
296	33754
296	33756
295	33758
294	33760
294	33762
294	33764
294	33766
295	33768
296	33770
299	33772
302	33774
306	33776
311	33778
318	33780
325	33782
332	33784
340	33786
348	33788
355	33790
358	33792
364	33794
368	33796
371	33798
372	33800
371	33802
370	33804
368	33806
366	33808
364	33810
361	33812
358	33814
355	33816
352	33818
348	33820
345	33822
342	33824
339	33826
336	33828
333	33830
330	33832
328	33835
325	33837
323	33839
320	33841
318	33843
316	33845
314	33847
312	33849
310	33851
308	33853
307	33855
305	33857
303	33859
302	33861
300	33863
299	33865
298	33867
297	33869
296	33871
295	33873
294	33875
293	33878
292	33880
291	33882
290	33884
290	33886
289	33888
288	33890
288	33892
287	33894
287	33896
287	33898
286	33900
286	33902
286	33904
286	33906
286	33908
286	33910
285	33912
285	33914
285	33916
285	33918
285	33920
286	33922
286	33924
286	33926
286	33928
286	33930
286	33932
286	33934
287	33936
287	33938
287	33940
287	33942
288	33944
288	33946
288	33948
289	33950
289	33952
290	33954
290	33956
291	33958
291	33960
292	33963
293	33965
293	33967
294	33969
294	33971
295	33973
296	33975
296	33977
297	33979
298	33981
299	33983
300	33985
301	33987
302	33989
303	33991
304	33993
305	33995
306	33997
307	33999
309	34001
309	34003
311	34006
312	34008
313	34010
314	34012
316	34014
317	34016
318	34018
319	34020
320	34022
321	34024
322	34026
323	34028
323	34030
324	34032
325	34034
325	34036
326	34038
327	34040
327	34042
328	34044
328	34046
328	34048
328	34050
328	34052
328	34054
328	34056
328	34058
328	34060
327	34062
327	34064
326	34066
325	34068
325	34070
324	34072
323	34074
322	34076
321	34078
320	34080
318	34082
317	34084
316	34086
314	34088
313	34091
311	34093
310	34095
309	34097
307	34099
306	34101
305	34103
303	34105
302	34107
300	34109
299	34111
298	34113
297	34115
296	34117
295	34119
294	34121
293	34123
292	34125
291	34127
290	34129
289	34131
288	34134
288	34136
287	34138
286	34140
286	34142
285	34144
285	34146
285	34148
284	34150
284	34152
283	34154
283	34156
283	34158
283	34160
283	34162
282	34164
283	34166
282	34168
282	34170
282	34172
282	34174
282	34176
282	34178
282	34180
282	34182
282	34184
282	34186
282	34188
282	34190
282	34192
282	34194
282	34196
283	34198
283	34200
282	34202
283	34204
283	34206
283	34208
283	34210
283	34212
283	34214
283	34216
283	34219
283	34221
283	34223
283	34225
284	34227
284	34229
284	34231
284	34233
284	34235
284	34237
285	34239
285	34241
284	34243
285	34245
285	34247
285	34249
285	34251
285	34253
285	34255
286	34257
286	34259
286	34262
286	34264
286	34266
286	34268
286	34270
287	34272
287	34274
287	34276
287	34278
287	34280
288	34282
288	34284
288	34286
288	34288
288	34290
288	34292
289	34294
289	34296
289	34298
289	34300
289	34302
290	34304
290	34306
290	34308
290	34310
290	34312
290	34314
290	34316
290	34318
291	34320
291	34322
291	34324
292	34326
292	34328
292	34330
293	34332
293	34334
294	34336
294	34338
295	34340
295	34342
295	34344
296	34347
296	34349
297	34351
297	34353
297	34355
298	34357
298	34359
299	34361
299	34363
300	34365
300	34367
301	34369
301	34371
301	34373
302	34375
302	34377
303	34379
303	34381
303	34383
303	34385
303	34387
303	34390
303	34392
303	34394
303	34396
303	34398
303	34400
303	34402
303	34404
303	34406
302	34408
302	34410
302	34412
302	34414
302	34416
301	34418
301	34420
300	34422
300	34424
300	34426
300	34428
299	34430
299	34432
299	34434
299	34436
298	34438
298	34440
298	34442
298	34444
298	34446
298	34448
298	34450
297	34452
297	34454
297	34456
297	34458
297	34460
296	34462
297	34464
296	34466
296	34468
295	34470
295	34472
295	34475
295	34477
295	34479
296	34481
299	34483
301	34485
305	34487
310	34489
315	34491
321	34493
328	34495
335	34497
343	34499
350	34501
356	34503
361	34505
365	34507
368	34509
369	34511
368	34513
366	34515
364	34518
362	34520
359	34522
357	34524
354	34526
351	34528
347	34530
344	34532
341	34534
338	34536
335	34538
332	34540
330	34542
327	34544
325	34546
322	34548
320	34550
318	34552
316	34554
314	34556
312	34558
311	34560
310	34562
308	34564
306	34566
305	34568
304	34570
302	34572
301	34574
300	34576
299	34578
298	34580
297	34582
296	34584
295	34586
294	34588
293	34590
292	34592
292	34594
291	34596
291	34598
290	34600
290	34603
289	34605
289	34607
289	34609
288	34611
288	34613
288	34615
288	34617
288	34619
287	34621
287	34623
287	34625
287	34627
287	34629
288	34631
288	34633
288	34635
288	34637
288	34639
288	34641
288	34643
289	34646
289	34648
289	34650
289	34652
290	34654
290	34656
290	34658
291	34660
291	34662
292	34664
292	34666
293	34668
293	34670
293	34672
294	34674
294	34676
295	34678
296	34680
296	34682
297	34684
298	34686
298	34688
299	34690
300	34692
301	34694
301	34696
302	34698
303	34700
304	34702
305	34704
306	34706
307	34708
309	34710
310	34712
311	34714
312	34716
313	34718
314	34720
316	34722
316	34724
318	34726
319	34728
320	34731
321	34733
322	34735
323	34737
323	34739
324	34741
325	34743
326	34745
327	34747
327	34749
328	34751
328	34753
329	34755
329	34757
329	34759
329	34761
330	34763
330	34765
330	34767
329	34769
329	34771
329	34774
328	34776
327	34778
327	34780
326	34782
325	34784
324	34786
323	34788
322	34790
320	34792
319	34794
318	34796
317	34798
315	34800
314	34802
313	34804
311	34806
310	34808
308	34810
307	34812
306	34814
305	34816
304	34818
303	34820
301	34822
300	34824
299	34826
298	34828
297	34830
296	34832
295	34834
294	34836
293	34838
292	34840
291	34842
291	34844
290	34846
289	34848
289	34850
288	34852
288	34854
287	34856
287	34859
286	34861
286	34863
286	34865
285	34867
285	34869
285	34871
285	34873
285	34875
284	34877
284	34879
284	34881
284	34883
284	34885
284	34887
284	34889
284	34891
284	34893
284	34895
284	34897
284	34899
284	34902
285	34904
284	34906
285	34908
285	34910
285	34912
285	34914
285	34916
285	34918
285	34920
285	34922
286	34924
285	34926
286	34928
286	34930
286	34932
286	34934
286	34936
286	34938
286	34940
286	34942
286	34944
286	34946
287	34948
287	34950
287	34952
287	34954
287	34956
287	34958
287	34960
287	34962
287	34964
288	34966
288	34968
288	34970
288	34972
288	34974
288	34976
288	34978
289	34980
289	34982
289	34984
289	34987
289	34989
289	34991
290	34993
290	34995
290	34997
290	34999
290	35001
290	35003
290	35005
290	35007
291	35009
291	35011
291	35013
291	35015
291	35017
291	35019
292	35021
292	35023
292	35025
292	35027
292	35030
292	35032
293	35034
293	35036
293	35038
293	35040
294	35042
294	35044
295	35046
295	35048
296	35050
296	35052
296	35054
297	35056
297	35058
298	35060
298	35062
298	35064
298	35066
299	35068
299	35070
299	35072
300	35074
300	35076
301	35078
301	35080
302	35082
302	35084
302	35086
303	35088
303	35090
303	35092
304	35094
304	35096
304	35098
305	35100
305	35102
305	35104
305	35106
305	35108
305	35110
305	35112
305	35115
304	35117
304	35119
304	35121
304	35123
304	35125
303	35127
303	35129
303	35131
303	35133
302	35135
302	35137
302	35139
301	35141
301	35143
301	35145
300	35147
300	35149
300	35151
300	35153
299	35155
299	35158
299	35160
299	35162
299	35164
299	35166
298	35168
299	35170
298	35172
298	35174
298	35176
298	35178
298	35180
297	35182
297	35184
297	35186
296	35188
296	35190
296	35192
296	35194
297	35196
299	35198
300	35200
303	35202
306	35204
311	35206
316	35208
323	35210
330	35212
338	35214
345	35216
353	35218
359	35220
364	35222
368	35224
371	35226
373	35228
372	35230
371	35232
370	35234
368	35236
366	35238
364	35240
361	35243
358	35245
354	35247
351	35249
348	35251
344	35253
341	35255
339	35257
336	35259
333	35261
331	35263
328	35265
325	35267
323	35269
321	35271
318	35273
316	35275
314	35277
312	35279
310	35281
309	35283
307	35286
305	35288
304	35290
302	35292
301	35294
300	35296
298	35298
297	35300
296	35302
295	35304
294	35306
293	35308
292	35310
292	35312
291	35314
290	35316
290	35318
289	35320
289	35322
288	35324
288	35326
288	35328
287	35330
287	35332
287	35334
287	35336
286	35338
286	35340
286	35342
286	35344
286	35346
286	35348
286	35350
286	35352
286	35354
286	35356
286	35358
287	35360
287	35362
287	35364
288	35366
287	35368
288	35371
288	35373
288	35375
289	35377
289	35379
290	35381
290	35383
291	35385
291	35387
291	35389
292	35391
293	35393
293	35395
294	35397
294	35399
295	35401
296	35403
297	35405
297	35407
298	35409
299	35411
300	35414
301	35416
302	35418
303	35420
304	35422
305	35424
306	35426
307	35428
308	35430
309	35432
310	35434
312	35436
313	35438
314	35440
315	35442
316	35444
318	35446
318	35448
319	35450
320	35452
321	35454
322	35456
323	35458
323	35460
324	35462
325	35464
326	35466
326	35468
327	35470
327	35472
328	35474
328	35476
328	35478
329	35480
329	35482
329	35484
328	35486
328	35488
328	35490
327	35492
327	35494
326	35496
325	35499
324	35501
323	35503
322	35505
321	35507
320	35509
319	35511
317	35513
316	35515
315	35517
313	35519
312	35521
310	35523
309	35525
308	35527
306	35529
305	35531
303	35533
302	35535
301	35537
300	35539
298	35542
298	35544
296	35546
295	35548
294	35550
293	35552
293	35554
292	35556
291	35558
290	35560
289	35562
289	35564
288	35566
287	35568
287	35570
286	35572
286	35574
286	35576
285	35578
285	35580
284	35582
284	35584
284	35586
284	35588
284	35590
283	35592
283	35594
283	35596
283	35598
283	35600
283	35602
283	35604
283	35606
283	35608
283	35610
283	35612
283	35614
283	35616
283	35618
283	35620
283	35622
283	35624
283	35627
284	35629
284	35631
284	35633
284	35635
284	35637
284	35639
284	35641
284	35643
284	35645
285	35647
284	35649
285	35651
284	35653
285	35655
285	35657
285	35659
285	35661
285	35663
285	35665
285	35667
285	35670
285	35672
286	35674
286	35676
286	35678
286	35680
286	35682
286	35684
286	35686
287	35688
287	35690
287	35692
287	35694
287	35696
287	35698
287	35700
288	35702
288	35704
288	35706
288	35708
288	35710
288	35712
288	35714
288	35716
289	35718
289	35720
289	35722
289	35724
289	35726
290	35728
290	35730
290	35732
290	35734
290	35736
290	35738
291	35740
291	35742
291	35744
291	35746
291	35748
291	35750
291	35752
292	35755
292	35757
292	35759
292	35761
292	35763
293	35765
293	35767
293	35769
293	35771
293	35773
293	35775
294	35777
294	35779
294	35781
294	35783
294	35785
294	35787
294	35789
295	35791
295	35793
295	35795
296	35798
296	35800
297	35802
297	35804
298	35806
298	35808
298	35810
299	35812
299	35814
299	35816
299	35818
300	35820
300	35822
300	35824
301	35826
302	35828
302	35830
302	35832
303	35834
303	35836
304	35838
304	35840
304	35842
304	35844
304	35846
305	35848
305	35850
305	35852
305	35854
305	35856
305	35858
305	35860
305	35862
305	35864
305	35866
305	35868
305	35870
305	35872
304	35874
304	35876
304	35878
304	35880
304	35883
303	35885
303	35887
303	35889
302	35891
302	35893
302	35895
301	35897
301	35899
301	35901
301	35903
300	35905
300	35907
300	35909
300	35911
300	35913
299	35915
299	35917
299	35919
299	35921
299	35923
299	35926
299	35928
298	35930
298	35932
298	35934
298	35936
297	35938
297	35940
296	35942
296	35944
296	35946
297	35948
299	35950
301	35952
304	35954
308	35956
313	35958
319	35960
326	35962
334	35964
342	35966
346	35968
354	35970
360	35972
366	35974
371	35976
374	35978
376	35980
376	35982
375	35984
374	35986
373	35988
371	35990
369	35992
366	35994
363	35996
360	35998
357	36000
353	36002
350	36004
347	36006
344	36008
341	36011
338	36013
335	36015
332	36017
329	36019
327	36021
324	36023
321	36025
319	36027
317	36029
315	36031
312	36033
310	36035
309	36037
307	36039
305	36041
303	36043
302	36045
300	36047
299	36049
298	36051
296	36054
295	36056
294	36058
293	36060
292	36062
291	36064
290	36066
289	36068
289	36070
288	36072
288	36074
287	36076
286	36078
286	36080
286	36082
285	36084
285	36086
285	36088
285	36090
284	36092
284	36094
284	36096
284	36098
284	36100
284	36102
284	36104
284	36106
284	36108
284	36110
284	36112
284	36114
285	36116
285	36118
285	36120
285	36122
286	36124
286	36126
286	36128
287	36130
287	36132
288	36134
288	36136
288	36139
289	36141
289	36143
290	36145
291	36147
291	36149
292	36151
293	36153
293	36155
294	36157
295	36159
296	36161
296	36163
298	36165
298	36167
299	36169
300	36171
302	36173
303	36175
304	36177
305	36179
306	36182
307	36184
308	36186
309	36188
311	36190
312	36192
313	36194
314	36196
315	36198
316	36200
318	36202
319	36204
320	36206
321	36208
322	36210
323	36212
323	36214
324	36216
325	36218
326	36220
326	36222
327	36224
327	36226
327	36228
328	36230
328	36232
328	36234
328	36236
328	36238
328	36240
328	36242
327	36244
327	36246
326	36248
325	36250
324	36252
324	36254
323	36256
321	36258
320	36260
319	36262
318	36264
316	36267
315	36269
314	36271
312	36273
311	36275
309	36277
308	36279
306	36281
305	36283
304	36285
303	36287
301	36289
300	36291
298	36293
297	36295
296	36297
295	36299
294	36301
293	36303
292	36305
291	36307
290	36310
289	36312
288	36314
288	36316
287	36318
287	36320
286	36322
286	36324
285	36326
285	36328
284	36330
284	36332
284	36334
283	36336
283	36338
282	36340
282	36342
282	36344
282	36346
282	36348
282	36350
282	36352
282	36354
282	36356
281	36358
282	36360
281	36362
282	36364
282	36366
282	36368
282	36370
282	36372
282	36374
282	36376
282	36378
282	36380
282	36382
282	36384
282	36386
282	36388
282	36390
282	36392
282	36395
282	36397
283	36399
283	36401
283	36403
283	36405
283	36407
283	36409
283	36411
283	36413
283	36415
283	36417
284	36419
284	36421
284	36423
284	36425
284	36427
284	36429
284	36431
285	36433
285	36435
285	36438
285	36440
285	36442
286	36444
285	36446
286	36448
286	36450
286	36452
286	36454
286	36456
286	36458
287	36460
287	36462
287	36464
287	36466
287	36468
288	36470
288	36472
288	36474
288	36476
288	36478
288	36480
288	36482
289	36484
289	36486
289	36488
289	36490
289	36492
289	36494
290	36496
290	36498
290	36500
290	36502
290	36504
291	36506
291	36508
291	36510
291	36512
291	36514
291	36516
292	36518
292	36520
292	36523
292	36525
292	36527
292	36529
293	36531
293	36533
293	36535
293	36537
293	36539
293	36541
294	36543
294	36545
294	36547
294	36549
294	36551
294	36553
294	36555
294	36557
294	36559
295	36561
295	36563
296	36566
296	36568
296	36570
297	36572
297	36574
298	36576
298	36578
299	36580
299	36582
299	36584
299	36586
300	36588
300	36590
300	36592
301	36594
301	36596
302	36598
302	36600
302	36602
303	36604
304	36606
304	36608
304	36610
304	36612
304	36614
305	36616
305	36618
305	36620
305	36622
306	36624
306	36626
306	36628
305	36630
306	36632
306	36634
305	36636
305	36638
305	36640
305	36642
305	36644
304	36646
304	36648
304	36651
304	36653
303	36655
303	36657
303	36659
302	36661
302	36663
302	36665
301	36667
301	36669
301	36671
301	36673
300	36675
300	36677
300	36679
300	36681
300	36683
299	36685
299	36687
299	36689
299	36691
299	36694
299	36696
299	36698
299	36700
298	36702
298	36704
298	36706
297	36708
297	36710
296	36712
296	36714
296	36716
296	36718
297	36720
299	36722
301	36724
305	36726
309	36728
315	36730
321	36732
329	36734
333	36736
341	36738
350	36740
357	36742
364	36744
370	36746
374	36748
378	36750
380	36752
380	36754
379	36756
378	36758
377	36760
375	36762
373	36764
370	36766
368	36768
364	36770
360	36772
357	36774
353	36776
350	36779
347	36781
343	36783
340	36785
338	36787
334	36789
331	36791
328	36793
326	36795
323	36797
320	36799
318	36801
316	36803
313	36805
311	36807
309	36809
307	36811
306	36813
304	36815
302	36817
300	36819
299	36822
297	36824
296	36826
295	36828
294	36830
293	36832
292	36834
291	36836
290	36838
289	36840
288	36842
287	36844
287	36846
286	36848
286	36850
285	36852
285	36854
285	36856
284	36858
284	36860
284	36862
284	36864
283	36866
283	36868
283	36870
283	36872
283	36874
283	36876
283	36878
283	36880
283	36882
283	36884
283	36886
284	36888
284	36890
284	36892
284	36894
285	36896
285	36898
285	36900
286	36902
286	36904
287	36907
287	36909
288	36911
288	36913
289	36915
289	36917
290	36919
291	36921
291	36923
292	36925
293	36927
294	36929
294	36931
295	36933
296	36935
297	36937
298	36939
299	36941
300	36943
301	36945
302	36947
303	36950
305	36952
305	36954
307	36956
308	36958
309	36960
310	36962
312	36964
313	36966
314	36968
315	36970
316	36972
317	36974
318	36976
319	36978
320	36980
321	36982
322	36984
323	36986
324	36988
325	36990
325	36992
326	36994
326	36996
327	36998
327	37000
327	37002
328	37004
328	37006
328	37008
328	37010
328	37012
327	37014
327	37016
326	37018
326	37020
325	37022
324	37024
324	37026
323	37028
321	37030
320	37032
319	37035
318	37037
316	37039
315	37041
313	37043
312	37045
310	37047
309	37049
307	37051
306	37053
305	37055
303	37057
302	37059
300	37061
299	37063
298	37065
296	37067
295	37069
294	37071
293	37073
292	37075
291	37078
290	37080
290	37082
289	37084
288	37086
287	37088
286	37090
286	37092
285	37094
284	37096
284	37098
284	37100
283	37102
283	37104
282	37106
282	37108
282	37110
282	37112
282	37114
281	37116
281	37118
281	37120
281	37122
281	37124
281	37126
281	37128
280	37130
281	37132
280	37134
280	37136
281	37138
281	37140
280	37142
281	37144
281	37146
281	37148
281	37150
281	37152
281	37154
281	37156
281	37158
281	37160
281	37163
281	37165
281	37167
281	37169
281	37171
282	37173
282	37175
282	37177
282	37179
282	37181
282	37183
282	37185
282	37187
282	37189
282	37191
283	37193
283	37195
283	37197
283	37199
283	37201
283	37203
283	37206
284	37208
284	37210
284	37212
284	37214
284	37216
285	37218
285	37220
285	37222
285	37224
285	37226
286	37228
286	37230
286	37232
286	37234
286	37236
286	37238
287	37240
287	37242
287	37244
287	37246
287	37248
287	37250
288	37252
288	37254
288	37256
288	37258
288	37260
289	37262
289	37264
289	37266
289	37268
289	37270
289	37272
290	37274
290	37276
290	37278
290	37280
290	37282
291	37284
291	37286
291	37288
291	37291
291	37293
292	37295
292	37297
292	37299
292	37301
292	37303
292	37305
293	37307
293	37309
293	37311
293	37313
293	37315
294	37317
294	37319
294	37321
294	37323
294	37325
294	37327
295	37329
295	37331
295	37334
295	37336
295	37338
295	37340
296	37342
296	37344
296	37346
296	37348
296	37350
297	37352
297	37354
298	37356
298	37358
299	37360
299	37362
299	37364
300	37366
300	37368
300	37370
300	37372
301	37374
301	37376
301	37378
302	37380
302	37382
303	37384
303	37386
303	37388
304	37390
304	37392
304	37394
305	37396
305	37398
305	37400
306	37402
306	37404
306	37406
306	37408
306	37410
306	37412
306	37414
306	37416
306	37419
306	37421
306	37423
306	37425
305	37427
305	37429
305	37431
305	37433
304	37435
304	37437
304	37439
304	37441
303	37443
303	37445
303	37447
302	37449
302	37451
302	37453
301	37455
301	37457
301	37459
301	37462
301	37464
300	37466
300	37468
300	37470
300	37472
299	37474
300	37476
300	37478
299	37480
299	37482
299	37484
299	37486
299	37488
298	37490
298	37492
297	37494
297	37496
296	37498
296	37500
296	37502
297	37504
298	37506
301	37508
304	37510
308	37512
313	37514
319	37516
326	37518
335	37520
343	37522
352	37524
359	37526
366	37528
372	37530
376	37532
380	37534
381	37536
381	37538
381	37540
380	37542
379	37544
377	37547
375	37549
372	37551
369	37553
366	37555
362	37557
359	37559
355	37561
352	37563
348	37565
345	37567
342	37569
339	37571
336	37573
333	37575
330	37577
327	37579
324	37581
322	37583
319	37585
317	37587
314	37590
312	37592
310	37594
308	37596
306	37598
304	37600
303	37602
301	37604
300	37606
298	37608
297	37610
295	37612
294	37614
293	37616
292	37618
291	37620
290	37622
289	37624
288	37626
288	37628
287	37630
287	37632
286	37634
286	37636
285	37638
285	37640
284	37642
284	37644
284	37646
284	37648
283	37650
283	37652
283	37654
283	37656
283	37658
283	37660
283	37662
283	37664
283	37666
283	37668
283	37670
284	37672
284	37675
284	37677
284	37679
285	37681
285	37683
286	37685
286	37687
286	37689
287	37691
287	37693
288	37695
288	37697
289	37699
289	37701
290	37703
291	37705
291	37707
292	37709
293	37711
293	37713
294	37715
295	37718
296	37720
297	37722
298	37724
299	37726
300	37728
301	37730
302	37732
303	37734
305	37736
306	37738
307	37740
308	37742
310	37744
311	37746
312	37748
313	37750
314	37752
316	37754
317	37756
318	37758
319	37760
320	37762
320	37764
322	37766
323	37768
324	37770
324	37772
325	37774
326	37776
326	37778
327	37780
327	37782
328	37784
328	37786
328	37788
329	37790
328	37792
329	37794
328	37796
328	37798
328	37800
327	37803
327	37805
326	37807
325	37809
324	37811
323	37813
322	37815
321	37817
320	37819
318	37821
317	37823
315	37825
314	37827
312	37829
311	37831
309	37833
308	37835
306	37837
305	37839
303	37841
302	37843
301	37846
299	37848
298	37850
297	37852
295	37854
294	37856
293	37858
292	37860
291	37862
290	37864
290	37866
288	37868
287	37870
287	37872
286	37874
286	37876
285	37878
284	37880
284	37882
283	37884
283	37886
282	37888
282	37890
281	37892
281	37894
281	37896
281	37898
280	37900
280	37902
280	37904
280	37906
280	37908
280	37910
279	37912
279	37914
279	37916
279	37918
279	37920
279	37922
279	37924
279	37926
279	37928
279	37931
279	37933
279	37935
280	37937
280	37939
280	37941
280	37943
281	37945
281	37947
281	37949
281	37951
281	37953
281	37955
281	37957
281	37959
282	37961
282	37963
282	37965
282	37967
282	37969
282	37971
282	37974
282	37976
282	37978
282	37980
283	37982
283	37984
283	37986
283	37988
283	37990
283	37992
283	37994
283	37996
284	37998
284	38000
284	38002
284	38004
284	38006
284	38008
284	38010
284	38012
285	38014
285	38016
285	38018
285	38020
285	38022
285	38024
286	38026
286	38028
286	38030
286	38032
286	38034
286	38036
286	38038
287	38040
287	38042
287	38044
