302	754871
302	754873
302	754875
302	754877
302	754879
302	754881
302	754883
303	754885
303	754887
302	754889
303	754891
303	754893
303	754895
303	754897
303	754899
303	754902
303	754904
303	754906
303	754908
303	754910
303	754912
303	754914
303	754916
303	754918
303	754920
303	754922
303	754924
303	754926
303	754928
303	754930
304	754932
304	754934
304	754936
304	754938
304	754940
304	754942
304	754944
304	754946
304	754948
304	754950
304	754952
304	754954
304	754956
305	754958
304	754960
305	754962
305	754964
304	754966
305	754968
305	754970
305	754972
305	754974
305	754976
305	754978
305	754980
305	754982
305	754984
305	754987
305	754989
305	754991
305	754993
305	754995
305	754997
305	754999
305	755001
305	755003
305	755005
305	755007
305	755009
305	755011
305	755013
305	755015
305	755017
305	755019
305	755021
305	755023
305	755025
305	755027
305	755030
305	755032
305	755034
305	755036
305	755038
305	755040
305	755042
305	755044
305	755046
305	755048
305	755050
305	755052
305	755054
305	755056
305	755058
305	755060
305	755062
305	755064
305	755066
305	755068
304	755070
305	755072
305	755074
304	755076
304	755078
304	755080
304	755082
304	755084
304	755086
304	755088
304	755090
304	755092
304	755094
304	755096
304	755098
304	755100
304	755102
305	755104
305	755106
306	755108
307	755110
308	755112
309	755115
310	755117
310	755119
311	755121
312	755123
312	755125
313	755127
313	755129
314	755131
314	755133
314	755135
315	755137
315	755139
315	755141
315	755143
315	755145
315	755147
315	755149
315	755151
315	755153
315	755155
314	755158
314	755160
313	755162
313	755164
312	755166
311	755168
311	755170
310	755172
310	755174
310	755176
309	755178
309	755180
308	755182
308	755184
307	755186
307	755188
306	755190
306	755192
306	755194
305	755196
305	755198
305	755200
304	755202
304	755204
304	755206
304	755208
303	755210
303	755212
303	755214
303	755216
303	755218
302	755220
302	755222
302	755224
302	755226
302	755228
302	755230
301	755232
302	755234
302	755236
302	755238
302	755240
303	755243
303	755245
304	755247
305	755249
306	755251
308	755253
311	755255
316	755257
321	755259
328	755261
336	755263
344	755265
354	755267
364	755269
376	755271
387	755273
399	755275
409	755277
420	755279
429	755281
437	755283
444	755286
450	755288
454	755290
457	755292
458	755294
457	755296
453	755298
449	755300
443	755302
435	755304
428	755306
420	755308
413	755310
406	755312
399	755314
392	755316
386	755318
380	755320
374	755322
369	755324
363	755326
360	755328
355	755330
350	755332
345	755334
340	755336
335	755338
331	755340
327	755342
323	755344
319	755346
315	755348
312	755350
308	755352
305	755354
302	755356
299	755358
296	755360
293	755362
291	755364
288	755366
286	755368
284	755371
282	755373
280	755375
278	755377
277	755379
275	755381
274	755383
272	755385
271	755387
270	755389
269	755391
268	755393
267	755395
266	755397
266	755399
265	755401
264	755403
264	755405
264	755407
263	755409
263	755411
262	755414
262	755416
262	755418
262	755420
262	755422
262	755424
262	755426
262	755428
262	755430
262	755432
262	755434
263	755436
263	755438
263	755440
263	755442
264	755444
264	755446
265	755448
266	755450
266	755452
267	755454
267	755456
268	755458
268	755460
269	755462
270	755464
271	755466
272	755468
272	755470
273	755472
274	755474
275	755476
276	755478
277	755480
279	755482
280	755484
281	755486
283	755488
284	755490
285	755492
286	755494
288	755496
289	755499
291	755501
292	755503
293	755505
295	755507
296	755509
298	755511
299	755513
301	755515
302	755517
303	755519
305	755521
306	755523
307	755525
308	755527
309	755529
310	755531
311	755533
312	755535
313	755537
314	755539
314	755542
315	755544
315	755546
315	755548
316	755550
316	755552
315	755554
315	755556
315	755558
314	755560
314	755562
313	755564
313	755566
312	755568
311	755570
310	755572
309	755574
308	755576
308	755578
307	755580
306	755582
305	755584
304	755586
303	755588
302	755590
301	755592
300	755594
299	755596
298	755598
297	755600
297	755602
296	755604
295	755606
294	755608
293	755610
293	755612
292	755614
292	755616
291	755618
291	755620
290	755622
290	755624
289	755627
289	755629
288	755631
288	755633
287	755635
287	755637
287	755639
286	755641
286	755643
286	755645
286	755647
286	755649
286	755651
286	755653
286	755655
286	755657
286	755659
285	755661
285	755663
285	755665
285	755667
285	755670
285	755672
285	755674
285	755676
286	755678
286	755680
286	755682
286	755684
286	755686
286	755688
286	755690
286	755692
286	755694
287	755696
287	755698
287	755700
287	755702
287	755704
287	755706
288	755708
288	755710
288	755712
288	755714
288	755716
288	755718
288	755720
288	755722
288	755724
288	755726
289	755728
289	755730
289	755732
289	755734
289	755736
289	755738
289	755740
289	755742
289	755744
289	755746
289	755748
289	755750
289	755752
289	755755
289	755757
290	755759
289	755761
289	755763
290	755765
289	755767
289	755769
290	755771
289	755773
289	755775
289	755777
290	755779
290	755781
290	755783
290	755785
290	755787
290	755789
290	755791
290	755793
290	755795
290	755798
290	755800
290	755802
290	755804
291	755806
291	755808
291	755810
291	755812
291	755814
291	755816
291	755818
291	755820
291	755822
292	755824
292	755826
292	755828
292	755830
292	755832
292	755834
292	755836
293	755838
293	755840
293	755842
293	755844
293	755846
293	755848
293	755850
293	755852
294	755854
294	755856
294	755858
294	755860
294	755862
294	755864
294	755866
295	755868
295	755870
295	755872
295	755874
295	755876
295	755878
296	755880
296	755883
296	755885
296	755887
296	755889
296	755891
296	755893
296	755895
297	755897
297	755899
297	755901
297	755903
297	755905
297	755907
297	755909
297	755911
297	755913
298	755915
298	755917
298	755919
298	755921
298	755923
298	755926
298	755928
298	755930
298	755932
298	755934
299	755936
298	755938
299	755940
299	755942
299	755944
299	755946
299	755948
299	755950
300	755952
300	755954
300	755956
300	755958
300	755960
300	755962
301	755964
301	755966
301	755968
301	755970
301	755972
301	755974
301	755976
301	755978
301	755980
301	755982
302	755984
302	755986
302	755988
302	755990
302	755992
302	755994
302	755996
302	755998
302	756000
302	756002
302	756004
302	756006
302	756008
302	756011
303	756013
303	756015
303	756017
303	756019
303	756021
303	756023
303	756025
303	756027
303	756029
303	756031
303	756033
303	756035
303	756037
303	756039
303	756041
303	756043
303	756045
303	756047
303	756049
303	756051
304	756054
303	756056
303	756058
303	756060
303	756062
303	756064
303	756066
304	756068
303	756070
303	756072
303	756074
304	756076
303	756078
303	756080
303	756082
303	756084
303	756086
303	756088
303	756090
303	756092
303	756094
303	756096
303	756098
303	756100
303	756102
303	756104
303	756106
303	756108
303	756110
303	756112
303	756114
303	756116
303	756118
303	756120
303	756122
304	756124
303	756126
303	756128
304	756130
303	756132
303	756134
304	756136
304	756139
304	756141
304	756143
304	756145
304	756147
304	756149
304	756151
304	756153
304	756155
304	756157
304	756159
304	756161
304	756163
303	756165
304	756167
303	756169
304	756171
303	756173
303	756175
303	756177
303	756179
303	756182
303	756184
303	756186
303	756188
303	756190
303	756192
303	756194
304	756196
305	756198
305	756200
306	756202
307	756204
308	756206
309	756208
310	756210
310	756212
311	756214
311	756216
312	756218
312	756220
313	756222
313	756224
313	756226
314	756228
314	756230
314	756232
314	756234
315	756236
315	756238
315	756240
315	756242
314	756244
314	756246
313	756248
313	756250
312	756252
312	756254
311	756256
311	756258
310	756260
310	756262
310	756264
309	756267
309	756269
308	756271
308	756273
307	756275
307	756277
306	756279
306	756281
306	756283
305	756285
305	756287
305	756289
304	756291
304	756293
304	756295
303	756297
303	756299
303	756301
302	756303
302	756305
302	756307
302	756310
302	756312
302	756314
301	756316
301	756318
301	756320
301	756322
300	756324
301	756326
301	756328
301	756330
301	756332
302	756334
302	756336
303	756338
304	756340
306	756342
309	756344
313	756346
318	756348
325	756350
329	756352
337	756354
346	756356
356	756358
367	756360
379	756362
391	756364
403	756366
414	756368
423	756370
432	756372
440	756374
446	756376
451	756378
453	756380
455	756382
454	756384
452	756386
448	756388
442	756390
435	756392
427	756395
420	756397
411	756399
404	756401
397	756403
390	756405
384	756407
378	756409
372	756411
367	756413
361	756415
356	756417
351	756419
346	756421
341	756423
337	756425
332	756427
328	756429
324	756431
320	756433
317	756435
313	756438
310	756440
307	756442
303	756444
300	756446
298	756448
295	756450
292	756452
290	756454
288	756456
286	756458
283	756460
282	756462
280	756464
278	756466
277	756468
275	756470
274	756472
272	756474
271	756476
270	756478
269	756480
268	756482
267	756484
267	756486
266	756488
265	756490
265	756492
264	756494
264	756496
263	756498
263	756500
263	756502
263	756504
263	756506
262	756508
262	756510
263	756512
263	756514
263	756516
263	756518
264	756520
264	756523
264	756525
264	756527
265	756529
265	756531
266	756533
266	756535
267	756537
268	756539
268	756541
269	756543
269	756545
270	756547
271	756549
272	756551
273	756553
274	756555
274	756557
275	756559
276	756561
277	756563
278	756566
280	756568
281	756570
282	756572
283	756574
285	756576
286	756578
288	756580
289	756582
290	756584
292	756586
294	756588
295	756590
297	756592
298	756594
300	756596
302	756598
303	756600
304	756602
306	756604
307	756606
308	756608
309	756610
311	756612
312	756614
313	756616
314	756618
316	756620
316	756622
317	756624
318	756626
319	756628
319	756630
320	756632
320	756634
320	756636
320	756638
320	756640
319	756642
319	756644
319	756646
318	756648
317	756651
316	756653
316	756655
315	756657
313	756659
312	756661
311	756663
310	756665
309	756667
308	756669
306	756671
305	756673
304	756675
303	756677
301	756679
301	756681
299	756683
298	756685
297	756687
296	756689
295	756691
294	756694
293	756696
292	756698
291	756700
290	756702
290	756704
289	756706
288	756708
287	756710
287	756712
286	756714
286	756716
286	756718
285	756720
284	756722
284	756724
284	756726
284	756728
283	756730
283	756732
283	756734
283	756736
283	756738
283	756740
282	756742
282	756744
283	756746
283	756748
283	756750
283	756752
283	756754
283	756756
283	756758
283	756760
283	756762
283	756764
283	756766
284	756768
284	756770
284	756772
284	756774
284	756776
285	756779
285	756781
285	756783
285	756785
285	756787
286	756789
286	756791
286	756793
286	756795
287	756797
287	756799
287	756801
287	756803
287	756805
288	756807
288	756809
288	756811
288	756813
288	756815
288	756817
289	756819
289	756822
289	756824
289	756826
289	756828
289	756830
289	756832
290	756834
290	756836
290	756838
290	756840
290	756842
290	756844
290	756846
290	756848
290	756850
291	756852
291	756854
291	756856
291	756858
291	756860
291	756862
291	756864
291	756866
291	756868
291	756870
292	756872
292	756874
292	756876
292	756878
292	756880
292	756882
292	756884
292	756886
292	756888
292	756890
292	756892
292	756894
292	756896
293	756898
293	756900
293	756902
293	756904
293	756907
293	756909
293	756911
293	756913
293	756915
294	756917
294	756919
294	756921
294	756923
294	756925
294	756927
294	756929
294	756931
295	756933
295	756935
295	756937
295	756939
295	756941
295	756943
295	756945
295	756947
296	756950
296	756952
296	756954
296	756956
296	756958
296	756960
296	756962
296	756964
297	756966
297	756968
297	756970
297	756972
297	756974
297	756976
297	756978
297	756980
297	756982
298	756984
298	756986
298	756988
298	756990
298	756992
298	756994
298	756996
298	756998
298	757000
299	757002
299	757004
299	757006
299	757008
299	757010
299	757012
299	757014
299	757016
299	757018
299	757020
300	757022
299	757024
299	757026
300	757028
300	757030
300	757032
300	757035
300	757037
300	757039
300	757041
300	757043
300	757045
300	757047
300	757049
301	757051
301	757053
301	757055
301	757057
301	757059
301	757061
301	757063
301	757065
301	757067
301	757069
301	757071
301	757073
301	757075
301	757078
301	757080
302	757082
301	757084
302	757086
301	757088
302	757090
302	757092
302	757094
302	757096
302	757098
302	757100
302	757102
302	757104
302	757106
302	757108
302	757110
302	757112
302	757114
302	757116
302	757118
302	757120
302	757122
302	757124
302	757126
302	757128
302	757130
302	757132
302	757134
302	757136
302	757138
302	757140
303	757142
303	757144
303	757146
304	757148
305	757150
306	757152
307	757154
308	757156
308	757158
309	757160
310	757163
310	757165
311	757167
312	757169
312	757171
313	757173
313	757175
314	757177
314	757179
314	757181
315	757183
315	757185
315	757187
315	757189
315	757191
314	757193
314	757195
314	757197
313	757199
313	757201
312	757203
312	757206
311	757208
311	757210
310	757212
310	757214
310	757216
309	757218
309	757220
308	757222
308	757224
307	757226
307	757228
307	757230
306	757232
306	757234
305	757236
305	757238
305	757240
304	757242
304	757244
304	757246
304	757248
303	757250
303	757252
303	757254
303	757256
302	757258
302	757260
302	757262
301	757264
302	757266
301	757268
301	757270
301	757272
301	757274
301	757276
301	757278
301	757280
302	757282
302	757284
302	757286
303	757288
305	757291
307	757293
309	757295
313	757297
319	757299
325	757301
333	757303
341	757305
351	757307
362	757309
374	757311
385	757313
397	757315
408	757317
418	757319
428	757321
436	757323
443	757325
448	757327
451	757329
453	757331
454	757334
452	757336
449	757338
444	757340
437	757342
430	757344
423	757346
415	757348
407	757350
400	757352
393	757354
387	757356
381	757358
375	757360
369	757362
364	757364
358	757366
353	757368
348	757370
343	757372
338	757374
336	757376
332	757378
328	757380
324	757382
320	757384
316	757386
313	757388
309	757390
306	757392
303	757394
300	757396
297	757398
294	757400
292	757402
290	757404
287	757406
285	757408
283	757410
281	757412
279	757414
278	757416
276	757419
275	757421
273	757423
272	757425
271	757427
270	757429
269	757431
268	757433
267	757435
266	757437
266	757439
265	757441
265	757443
264	757445
264	757447
263	757449
263	757451
263	757453
263	757455
262	757457
262	757459
263	757462
262	757464
262	757466
263	757468
263	757470
263	757472
263	757474
264	757476
264	757478
264	757480
264	757482
265	757484
265	757486
266	757488
267	757490
267	757492
268	757494
269	757496
269	757498
270	757500
271	757502
271	757504
272	757506
273	757508
274	757510
275	757512
276	757514
277	757516
278	757518
280	757520
281	757522
282	757524
284	757526
285	757528
286	757530
288	757532
289	757534
290	757536
292	757538
294	757540
295	757542
297	757544
298	757547
300	757549
301	757551
303	757553
304	757555
305	757557
307	757559
308	757561
309	757563
310	757565
312	757567
313	757569
314	757571
315	757573
315	757575
316	757577
317	757579
317	757581
317	757583
317	757585
317	757587
317	757590
317	757592
317	757594
316	757596
315	757598
315	757600
314	757602
313	757604
312	757606
311	757608
310	757610
309	757612
308	757614
307	757616
306	757618
304	757620
303	757622
302	757624
301	757626
300	757628
299	757630
298	757632
297	757634
296	757636
295	757638
294	757640
294	757642
292	757644
292	757646
291	757648
290	757650
289	757652
289	757654
288	757656
288	757658
287	757660
286	757662
286	757664
286	757666
285	757668
285	757670
285	757672
284	757675
284	757677
284	757679
283	757681
283	757683
283	757685
283	757687
283	757689
283	757691
283	757693
283	757695
283	757697
283	757699
283	757701
283	757703
283	757705
283	757707
283	757709
283	757711
283	757713
284	757715
284	757718
284	757720
284	757722
284	757724
284	757726
285	757728
285	757730
285	757732
285	757734
285	757736
286	757738
286	757740
286	757742
286	757744
287	757746
287	757748
287	757750
287	757752
288	757754
288	757756
288	757758
288	757760
288	757762
289	757764
289	757766
289	757768
289	757770
289	757772
289	757774
290	757776
290	757778
290	757780
290	757782
290	757784
290	757786
291	757788
291	757790
291	757792
291	757794
291	757796
291	757798
291	757800
292	757803
291	757805
292	757807
292	757809
292	757811
292	757813
292	757815
292	757817
292	757819
292	757821
292	757823
292	757825
292	757827
292	757829
292	757831
293	757833
293	757835
293	757837
293	757839
293	757841
293	757843
293	757846
293	757848
293	757850
294	757852
294	757854
294	757856
294	757858
294	757860
294	757862
294	757864
294	757866
294	757868
295	757870
295	757872
295	757874
295	757876
295	757878
295	757880
295	757882
295	757884
295	757886
296	757888
296	757890
296	757892
296	757894
296	757896
296	757898
297	757900
297	757902
297	757904
297	757906
297	757908
297	757910
297	757912
297	757914
297	757916
297	757918
298	757920
298	757922
298	757924
298	757926
298	757928
298	757931
298	757933
299	757935
299	757937
299	757939
299	757941
299	757943
299	757945
299	757947
299	757949
299	757951
300	757953
300	757955
300	757957
300	757959
300	757961
300	757963
300	757965
300	757967
300	757969
300	757971
300	757974
300	757976
300	757978
301	757980
301	757982
301	757984
301	757986
301	757988
301	757990
301	757992
301	757994
301	757996
301	757998
302	758000
301	758002
302	758004
302	758006
302	758008
302	758010
302	758012
302	758014
302	758016
302	758018
302	758020
302	758022
302	758024
302	758026
303	758028
303	758030
303	758032
303	758034
303	758036
303	758038
303	758040
303	758042
303	758044
302	758046
303	758048
303	758050
303	758052
303	758054
303	758056
303	758059
303	758061
303	758063
303	758065
303	758067
303	758069
303	758071
303	758073
303	758075
302	758077
303	758079
303	758081
303	758083
303	758085
302	758087
303	758089
303	758091
303	758093
303	758095
303	758097
303	758099
302	758102
302	758104
303	758106
302	758108
303	758110
302	758112
302	758114
302	758116
302	758118
303	758120
303	758122
303	758124
303	758126
303	758128
303	758130
303	758132
304	758134
304	758136
304	758138
303	758140
304	758142
303	758144
303	758146
303	758148
303	758150
303	758152
303	758154
303	758156
303	758158
303	758160
303	758162
303	758164
303	758166
303	758168
303	758170
304	758172
304	758174
304	758176
304	758178
304	758180
304	758182
304	758184
305	758187
305	758189
305	758191
305	758193
305	758195
305	758197
305	758199
305	758201
305	758203
305	758205
305	758207
305	758209
306	758211
306	758213
306	758215
306	758217
306	758219
306	758221
306	758223
306	758225
306	758227
306	758230
306	758232
306	758234
306	758236
306	758238
306	758240
306	758242
306	758244
307	758246
308	758248
308	758250
309	758252
310	758254
311	758256
311	758258
312	758260
313	758262
313	758264
313	758266
314	758268
315	758270
315	758272
316	758274
316	758276
317	758278
317	758280
317	758282
317	758284
317	758286
317	758288
317	758290
317	758292
317	758294
317	758296
316	758298
316	758300
315	758302
315	758304
314	758306
314	758308
313	758310
312	758312
312	758315
311	758317
311	758319
310	758321
310	758323
310	758325
309	758327
309	758329
308	758331
308	758333
307	758335
307	758337
307	758339
307	758341
306	758343
306	758345
305	758347
305	758349
305	758351
305	758353
304	758355
304	758358
304	758360
304	758362
304	758364
304	758366
304	758368
304	758370
303	758372
303	758374
303	758376
303	758378
303	758380
303	758382
303	758384
303	758386
303	758388
304	758390
305	758392
306	758394
309	758396
313	758398
315	758400
321	758402
328	758404
336	758406
345	758408
356	758410
367	758412
378	758414
390	758416
402	758418
413	758420
422	758422
431	758424
438	758426
445	758428
449	758430
452	758432
453	758434
453	758436
451	758438
446	758440
441	758443
434	758445
427	758447
419	758449
412	758451
405	758453
398	758455
392	758457
386	758459
380	758461
374	758463
369	758465
363	758467
358	758469
353	758471
348	758473
343	758475
339	758477
334	758479
330	758481
326	758483
322	758486
319	758488
315	758490
312	758492
309	758494
306	758496
303	758498
300	758500
297	758502
295	758504
293	758506
290	758508
288	758510
286	758512
285	758514
282	758516
281	758518
280	758520
278	758522
277	758524
275	758526
275	758528
274	758530
272	758532
272	758534
271	758536
270	758538
270	758540
269	758542
268	758544
267	758546
267	758548
267	758550
267	758552
266	758554
266	758556
266	758558
266	758560
266	758562
266	758564
266	758566
266	758568
266	758571
266	758573
267	758575
267	758577
267	758579
267	758581
268	758583
268	758585
269	758587
269	758589
270	758591
271	758593
271	758595
272	758597
273	758599
274	758601
274	758603
275	758605
276	758607
277	758609
278	758611
279	758614
280	758616
281	758618
282	758620
283	758622
285	758624
286	758626
287	758628
289	758630
290	758632
291	758634
293	758636
294	758638
296	758640
298	758642
299	758644
301	758646
302	758648
304	758650
305	758652
307	758654
308	758656
309	758658
310	758660
312	758662
313	758664
315	758666
316	758668
317	758670
318	758672
319	758674
320	758676
320	758678
321	758680
322	758682
322	758684
322	758686
322	758688
322	758690
322	758692
322	758694
322	758696
321	758699
321	758701
320	758703
319	758705
318	758707
318	758709
316	758711
315	758713
314	758715
313	758717
312	758719
311	758721
309	758723
308	758725
307	758727
306	758729
305	758731
303	758733
303	758735
301	758737
300	758739
299	758742
298	758744
297	758746
296	758748
295	758750
294	758752
294	758754
293	758756
292	758758
291	758760
290	758762
290	758764
289	758766
289	758768
288	758770
288	758772
288	758774
287	758776
287	758778
287	758780
286	758782
286	758784
286	758786
286	758788
286	758790
286	758792
286	758794
285	758796
285	758798
285	758800
285	758802
285	758804
285	758806
286	758808
286	758810
286	758812
286	758814
286	758816
286	758818
286	758820
286	758822
286	758824
286	758827
287	758829
287	758831
287	758833
288	758835
288	758837
287	758839
288	758841
288	758843
288	758845
288	758847
288	758849
289	758851
289	758853
289	758855
289	758857
289	758859
290	758861
290	758863
290	758865
290	758867
290	758870
291	758872
291	758874
291	758876
291	758878
291	758880
291	758882
291	758884
291	758886
291	758888
291	758890
291	758892
292	758894
292	758896
292	758898
291	758900
292	758902
292	758904
292	758906
292	758908
292	758910
292	758912
292	758914
292	758916
292	758918
292	758920
292	758922
292	758924
292	758926
292	758928
292	758930
292	758932
293	758934
292	758936
293	758938
292	758940
293	758942
293	758944
293	758946
293	758948
293	758950
293	758952
293	758955
293	758957
294	758959
294	758961
294	758963
294	758965
294	758967
294	758969
294	758971
294	758973
294	758975
294	758977
294	758979
295	758981
295	758983
295	758985
295	758987
295	758989
295	758991
295	758993
295	758995
295	758998
296	759000
296	759002
296	759004
296	759006
296	759008
297	759010
297	759012
297	759014
297	759016
297	759018
297	759020
298	759022
298	759024
298	759026
298	759028
298	759030
298	759032
298	759034
298	759036
299	759038
299	759040
299	759042
299	759044
299	759046
299	759048
299	759050
300	759052
299	759054
300	759056
300	759058
300	759060
300	759062
300	759064
300	759066
300	759068
301	759070
301	759072
301	759074
301	759076
301	759078
301	759080
301	759083
301	759085
302	759087
302	759089
302	759091
302	759093
302	759095
302	759097
302	759099
302	759101
302	759103
302	759105
302	759107
302	759109
302	759111
302	759113
302	759115
302	759117
303	759119
303	759121
303	759123
303	759126
303	759128
303	759130
303	759132
303	759134
303	759136
303	759138
303	759140
303	759142
303	759144
303	759146
304	759148
304	759150
304	759152
304	759154
304	759156
304	759158
304	759160
304	759162
304	759164
304	759166
304	759168
304	759170
304	759172
304	759174
304	759176
304	759178
304	759180
304	759182
304	759184
305	759186
306	759188
306	759190
307	759192
308	759194
309	759196
310	759198
311	759200
311	759202
312	759204
313	759206
313	759208
314	759211
314	759213
315	759215
315	759217
315	759219
316	759221
316	759223
316	759225
316	759227
316	759229
316	759231
316	759233
316	759235
315	759237
315	759239
314	759241
314	759243
313	759245
313	759247
313	759249
312	759251
312	759254
311	759256
311	759258
310	759260
310	759262
309	759264
309	759266
308	759268
308	759270
308	759272
307	759274
307	759276
307	759278
306	759280
306	759282
306	759284
305	759286
305	759288
305	759290
304	759292
304	759294
304	759296
304	759298
304	759300
303	759302
303	759304
303	759306
303	759308
303	759310
302	759312
302	759314
302	759316
302	759318
302	759320
302	759322
303	759324
303	759326
304	759328
305	759330
306	759332
308	759334
312	759336
316	759339
322	759341
329	759343
337	759345
346	759347
356	759349
367	759351
378	759353
390	759355
402	759357
413	759359
423	759361
432	759363
440	759365
446	759367
451	759369
454	759371
457	759373
456	759375
455	759377
451	759379
445	759382
439	759384
431	759386
424	759388
416	759390
409	759392
402	759394
396	759396
389	759398
383	759400
377	759402
372	759404
366	759406
360	759408
356	759410
350	759412
345	759414
341	759416
336	759418
332	759420
327	759422
325	759424
321	759426
318	759428
314	759430
311	759432
307	759434
304	759436
301	759438
298	759440
296	759442
293	759444
291	759446
288	759448
286	759450
284	759452
282	759454
280	759456
278	759458
277	759460
275	759462
274	759464
272	759467
272	759469
270	759471
269	759473
268	759475
268	759477
267	759479
266	759481
265	759483
265	759485
265	759487
264	759489
264	759491
263	759493
263	759495
263	759497
263	759499
263	759501
263	759503
263	759505
263	759507
263	759510
263	759512
263	759514
264	759516
264	759518
264	759520
265	759522
265	759524
266	759526
266	759528
266	759530
267	759532
268	759534
269	759536
269	759538
270	759540
271	759542
271	759544
272	759546
273	759548
274	759550
275	759552
276	759554
277	759556
278	759558
279	759560
280	759562
281	759564
283	759566
284	759568
286	759570
287	759572
289	759574
290	759576
292	759578
293	759580
295	759582
297	759584
298	759586
300	759588
302	759590
303	759592
304	759595
306	759597
307	759599
309	759601
310	759603
312	759605
313	759607
314	759609
315	759611
316	759613
317	759615
318	759617
319	759619
319	759621
320	759623
319	759625
320	759627
320	759629
320	759631
319	759633
319	759635
319	759638
318	759640
317	759642
316	759644
316	759646
314	759648
313	759650
312	759652
311	759654
310	759656
309	759658
308	759660
306	759662
305	759664
304	759666
303	759668
302	759670
301	759672
300	759674
299	759676
298	759678
297	759680
296	759682
295	759684
294	759686
293	759688
293	759690
292	759692
291	759694
290	759696
290	759698
289	759700
289	759702
288	759704
287	759706
287	759708
287	759710
286	759712
286	759714
286	759716
285	759718
285	759720
285	759723
284	759725
284	759727
284	759729
284	759731
284	759733
284	759735
284	759737
284	759739
284	759741
284	759743
284	759745
284	759747
284	759749
284	759751
284	759753
284	759755
284	759757
284	759759
284	759761
285	759763
284	759766
285	759768
285	759770
285	759772
285	759774
285	759776
286	759778
286	759780
286	759782
286	759784
286	759786
286	759788
287	759790
287	759792
287	759794
287	759796
288	759798
288	759800
288	759802
288	759804
288	759806
289	759808
289	759810
289	759812
289	759814
290	759816
290	759818
290	759820
290	759822
290	759824
290	759826
291	759828
291	759830
291	759832
291	759834
291	759836
291	759838
291	759840
291	759842
291	759844
292	759846
292	759848
292	759851
292	759853
292	759855
292	759857
292	759859
292	759861
292	759863
292	759865
292	759867
292	759869
293	759871
293	759873
293	759875
293	759877
293	759879
293	759881
293	759883
293	759885
293	759887
293	759889
293	759891
293	759894
293	759896
294	759898
294	759900
294	759902
294	759904
294	759906
294	759908
294	759910
294	759912
294	759914
294	759916
295	759918
295	759920
295	759922
295	759924
295	759926
295	759928
295	759930
295	759932
296	759934
296	759936
296	759938
296	759940
296	759942
296	759944
296	759946
296	759948
296	759950
297	759952
297	759954
297	759956
297	759958
297	759960
297	759962
297	759964
297	759966
297	759968
297	759970
297	759972
298	759974
298	759976
298	759979
298	759981
298	759983
298	759985
298	759987
298	759989
298	759991
299	759993
298	759995
299	759997
299	759999
299	760001
299	760003
299	760005
299	760007
300	760009
300	760011
300	760013
300	760015
300	760017
300	760019
300	760022
300	760024
300	760026
301	760028
301	760030
301	760032
301	760034
301	760036
301	760038
301	760040
301	760042
301	760044
301	760046
301	760048
302	760050
302	760052
302	760054
302	760056
302	760058
302	760060
302	760062
302	760064
302	760066
302	760068
302	760070
302	760072
303	760074
303	760076
303	760078
303	760080
303	760082
303	760084
304	760086
304	760088
304	760090
304	760092
304	760094
304	760096
304	760098
304	760100
304	760102
304	760104
304	760107
304	760109
304	760111
304	760113
305	760115
305	760117
305	760119
305	760121
305	760123
305	760125
305	760127
305	760129
305	760131
305	760133
305	760135
305	760137
305	760139
305	760141
305	760143
305	760145
305	760147
305	760150
305	760152
305	760154
305	760156
305	760158
305	760160
305	760162
306	760164
305	760166
305	760168
306	760170
306	760172
306	760174
306	760176
306	760178
306	760180
306	760182
306	760184
306	760186
306	760188
306	760190
306	760192
306	760194
306	760196
306	760198
306	760200
306	760202
306	760204
306	760206
306	760208
306	760210
306	760212
306	760214
306	760216
306	760218
306	760220
306	760222
306	760224
306	760226
306	760228
306	760230
306	760232
306	760235
306	760237
306	760239
306	760241
306	760243
306	760245
306	760247
306	760249
306	760251
306	760253
306	760255
306	760257
306	760259
306	760261
306	760263
306	760265
306	760267
306	760269
306	760271
306	760273
306	760275
306	760278
306	760280
306	760282
306	760284
306	760286
306	760288
306	760290
306	760292
306	760294
306	760296
306	760298
306	760300
306	760302
306	760304
306	760306
306	760308
306	760310
306	760312
306	760314
306	760316
306	760318
305	760320
305	760322
305	760324
305	760326
306	760328
306	760330
307	760332
308	760334
308	760336
309	760338
310	760340
311	760342
312	760344
312	760346
313	760348
313	760350
313	760352
314	760354
315	760356
315	760358
316	760360
316	760363
316	760365
316	760367
316	760369
316	760371
316	760373
316	760375
316	760377
316	760379
316	760381
315	760383
315	760385
314	760387
314	760389
313	760391
313	760393
313	760395
313	760397
314	760399
314	760401
314	760403
314	760406
314	760408
314	760410
314	760412
314	760414
315	760416
315	760418
315	760420
315	760422
314	760424
314	760426
313	760428
312	760430
312	760432
310	760434
310	760436
309	760438
308	760440
307	760442
306	760444
306	760446
306	760448
305	760450
305	760452
305	760454
305	760456
305	760458
305	760460
305	760462
305	760464
305	760466
305	760468
305	760470
306	760472
306	760474
306	760476
306	760478
307	760480
308	760482
310	760484
314	760486
319	760488
325	760491
332	760493
340	760495
350	760497
360	760499
371	760501
383	760503
395	760505
407	760507
419	760509
430	760511
440	760513
448	760515
456	760517
461	760519
465	760521
467	760523
466	760525
465	760527
461	760529
456	760531
448	760534
441	760536
433	760538
425	760540
417	760542
409	760544
402	760546
395	760548
389	760550
383	760552
377	760554
371	760556
365	760558
359	760560
354	760562
349	760564
344	760566
339	760568
334	760570
330	760572
325	760574
323	760576
319	760578
315	760580
312	760582
308	760584
304	760586
301	760588
298	760590
296	760592
294	760594
292	760596
291	760598
289	760600
287	760602
285	760604
285	760606
284	760608
282	760610
281	760612
281	760614
280	760616
278	760619
276	760621
274	760623
274	760625
272	760627
271	760629
270	760631
269	760633
268	760635
267	760637
266	760639
265	760641
265	760643
264	760645
263	760647
262	760649
262	760651
261	760653
261	760655
261	760657
260	760659
261	760662
261	760664
261	760666
261	760668
261	760670
261	760672
262	760674
262	760676
262	760678
263	760680
263	760682
264	760684
265	760686
265	760688
266	760690
267	760692
268	760694
268	760696
269	760698
270	760700
270	760702
271	760704
272	760706
273	760708
274	760710
275	760712
276	760714
277	760716
278	760718
279	760720
280	760722
282	760724
283	760726
284	760728
286	760730
287	760732
288	760734
290	760736
291	760738
293	760740
294	760742
296	760744
297	760747
299	760749
300	760751
301	760753
303	760755
304	760757
306	760759
308	760761
310	760763
312	760765
313	760767
315	760769
316	760771
317	760773
317	760775
318	760777
318	760779
318	760781
320	760783
320	760785
320	760787
319	760790
318	760792
317	760794
316	760796
315	760798
314	760800
314	760802
313	760804
312	760806
311	760808
310	760810
309	760812
308	760814
307	760816
305	760818
304	760820
302	760822
300	760824
299	760826
297	760828
296	760830
296	760832
295	760834
294	760836
293	760838
292	760840
291	760842
290	760844
290	760846
289	760848
289	760850
288	760852
288	760854
287	760856
287	760858
286	760860
286	760862
285	760864
285	760866
285	760868
284	760870
284	760872
284	760875
284	760877
284	760879
284	760881
284	760883
283	760885
283	760887
283	760889
283	760891
283	760893
283	760895
283	760897
283	760899
283	760901
283	760903
283	760905
283	760907
283	760909
283	760911
283	760913
283	760915
283	760918
284	760920
284	760922
284	760924
284	760926
284	760928
284	760930
284	760932
285	760934
286	760936
286	760938
287	760940
288	760942
288	760944
290	760946
290	760948
291	760950
291	760952
291	760954
292	760956
292	760958
293	760960
293	760962
294	760964
294	760966
293	760968
293	760970
292	760972
293	760974
292	760976
292	760978
292	760980
292	760982
292	760984
292	760986
292	760988
293	760990
293	760992
294	760994
294	760996
293	760998
293	761000
292	761003
291	761005
291	761007
291	761009
291	761011
291	761013
291	761015
291	761017
291	761019
292	761021
292	761023
292	761025
292	761027
291	761029
291	761031
291	761033
291	761035
291	761037
291	761039
292	761041
292	761043
292	761046
292	761048
292	761050
292	761052
292	761054
293	761056
293	761058
293	761060
293	761062
293	761064
293	761066
293	761068
294	761070
294	761072
294	761074
294	761076
294	761078
294	761080
294	761082
294	761084
295	761086
295	761088
295	761090
295	761092
295	761094
295	761096
295	761098
295	761100
295	761102
296	761104
295	761106
296	761108
295	761110
295	761112
296	761114
296	761116
296	761118
296	761120
296	761122
297	761124
297	761126
298	761128
299	761131
299	761133
299	761135
300	761137
300	761139
301	761141
301	761143
302	761145
302	761147
303	761149
302	761151
303	761153
303	761155
303	761157
302	761159
302	761161
301	761163
302	761165
302	761167
302	761169
302	761171
302	761174
301	761176
301	761178
301	761180
301	761182
302	761184
302	761186
302	761188
302	761190
302	761192
301	761194
301	761196
300	761198
301	761200
300	761202
301	761204
301	761206
301	761208
301	761210
301	761212
301	761214
302	761216
302	761218
302	761220
302	761222
302	761224
302	761226
302	761228
302	761230
302	761232
303	761234
302	761236
303	761238
303	761240
303	761242
303	761244
302	761246
303	761248
303	761250
303	761252
303	761254
303	761256
303	761259
303	761261
303	761263
303	761265
303	761267
303	761269
303	761271
303	761273
303	761275
303	761277
303	761279
303	761281
303	761283
303	761285
303	761287
303	761289
303	761291
303	761293
303	761295
303	761297
303	761299
304	761302
304	761304
304	761306
304	761308
304	761310
304	761312
304	761314
304	761316
304	761318
304	761320
304	761322
304	761324
305	761326
305	761328
305	761330
305	761332
305	761334
305	761336
304	761338
304	761340
303	761342
303	761344
302	761346
302	761348
301	761350
301	761352
300	761354
300	761356
300	761358
300	761360
300	761362
300	761364
300	761366
300	761368
300	761370
301	761372
302	761374
302	761376
303	761378
304	761380
304	761382
305	761384
306	761387
307	761389
307	761391
308	761393
309	761395
309	761397
309	761399
310	761401
310	761403
311	761405
311	761407
311	761409
312	761411
312	761413
312	761415
312	761417
312	761419
311	761421
311	761423
311	761425
310	761427
310	761430
309	761432
309	761434
308	761436
307	761438
307	761440
306	761442
305	761444
305	761446
305	761448
304	761450
303	761452
303	761454
302	761456
302	761458
301	761460
301	761462
301	761464
300	761466
300	761468
300	761470
299	761472
298	761474
298	761476
298	761478
297	761480
297	761482
297	761484
296	761486
296	761488
296	761490
295	761492
295	761494
295	761496
295	761498
294	761500
294	761502
294	761504
294	761506
293	761508
294	761510
293	761512
293	761515
293	761517
293	761519
293	761521
293	761523
294	761525
295	761527
297	761529
300	761531
305	761533
311	761535
318	761537
327	761539
336	761541
347	761543
359	761545
371	761547
384	761549
396	761551
408	761553
418	761555
428	761558
436	761560
443	761562
448	761564
451	761566
452	761568
452	761570
450	761572
445	761574
439	761576
432	761578
424	761580
415	761582
407	761584
399	761586
392	761588
385	761590
378	761592
372	761594
366	761596
360	761598
357	761600
352	761602
346	761604
341	761606
336	761608
331	761610
326	761612
321	761614
317	761616
313	761618
309	761620
305	761622
301	761624
297	761626
294	761628
291	761630
288	761632
284	761634
282	761636
279	761638
276	761640
274	761643
272	761645
270	761647
268	761649
266	761651
264	761653
263	761655
261	761657
260	761659
259	761661
257	761663
256	761665
255	761667
254	761669
253	761671
253	761673
252	761675
251	761677
251	761679
250	761681
250	761683
250	761686
250	761688
250	761690
250	761692
249	761694
250	761696
249	761698
249	761700
250	761702
250	761704
250	761706
250	761708
251	761710
251	761712
251	761714
252	761716
252	761718
253	761720
253	761722
254	761724
255	761726
255	761728
256	761730
256	761732
257	761734
258	761736
259	761738
260	761740
261	761742
262	761744
263	761746
263	761748
265	761750
266	761752
267	761754
268	761756
270	761758
271	761760
272	761762
274	761764
275	761766
277	761768
279	761771
280	761773
282	761775
283	761777
285	761779
286	761781
288	761783
290	761785
291	761787
293	761789
294	761791
296	761793
297	761795
299	761797
300	761799
301	761801
303	761803
304	761805
304	761807
305	761809
306	761811
307	761814
307	761816
308	761818
308	761820
308	761822
308	761824
308	761826
308	761828
308	761830
307	761832
307	761834
306	761836
305	761838
304	761840
303	761842
302	761844
301	761846
300	761848
299	761850
297	761852
296	761854
295	761856
294	761858
293	761860
292	761862
291	761864
289	761866
288	761868
287	761870
286	761872
285	761874
284	761876
283	761878
282	761880
281	761882
280	761884
279	761886
278	761888
277	761890
277	761892
276	761894
275	761896
275	761899
274	761901
273	761903
273	761905
272	761907
272	761909
272	761911
271	761913
271	761915
271	761917
270	761919
270	761921
270	761923
270	761925
270	761927
270	761929
270	761931
269	761933
269	761935
269	761937
269	761939
269	761942
269	761944
269	761946
268	761948
268	761950
269	761952
269	761954
268	761956
269	761958
269	761960
269	761962
269	761964
269	761966
269	761968
269	761970
270	761972
270	761974
270	761976
270	761978
270	761980
271	761982
270	761984
271	761986
271	761988
271	761990
271	761992
271	761994
272	761996
272	761998
272	762000
272	762002
272	762004
272	762006
272	762008
272	762010
272	762012
272	762014
273	762016
273	762018
273	762020
273	762022
273	762024
273	762027
273	762029
273	762031
273	762033
273	762035
273	762037
274	762039
273	762041
274	762043
274	762045
273	762047
274	762049
274	762051
274	762053
274	762055
273	762057
274	762059
274	762061
274	762063
273	762065
273	762067
273	762070
273	762072
273	762074
274	762076
274	762078
274	762080
274	762082
273	762084
273	762086
273	762088
274	762090
274	762092
274	762094
274	762096
274	762098
274	762100
273	762102
274	762104
274	762106
274	762108
274	762110
274	762112
274	762114
274	762116
274	762118
274	762120
274	762122
275	762124
274	762126
274	762128
274	762130
275	762132
275	762134
275	762136
275	762138
275	762140
275	762142
275	762144
275	762146
275	762148
275	762150
275	762152
275	762155
275	762157
275	762159
275	762161
275	762163
275	762165
275	762167
275	762169
275	762171
275	762173
275	762175
276	762177
276	762179
276	762181
276	762183
276	762185
276	762187
276	762189
276	762191
276	762193
276	762195
277	762198
277	762200
277	762202
277	762204
277	762206
277	762208
277	762210
277	762212
277	762214
277	762216
277	762218
277	762220
277	762222
277	762224
277	762226
277	762228
277	762230
277	762232
277	762234
278	762236
278	762238
278	762240
278	762242
278	762244
278	762246
278	762248
278	762250
278	762252
279	762254
279	762256
279	762258
279	762260
279	762262
279	762264
279	762266
279	762268
279	762270
279	762272
279	762274
280	762276
280	762278
281	762280
282	762283
283	762285
284	762287
285	762289
286	762291
287	762293
288	762295
288	762297
289	762299
290	762301
290	762303
291	762305
291	762307
292	762309
292	762311
292	762313
293	762315
293	762317
293	762319
293	762321
293	762323
293	762326
293	762328
293	762330
292	762332
292	762334
291	762336
291	762338
291	762340
290	762342
290	762344
289	762346
288	762348
288	762350
288	762352
287	762354
287	762356
287	762358
286	762360
286	762362
285	762364
285	762366
285	762368
284	762370
284	762372
284	762374
283	762376
283	762378
282	762380
282	762382
282	762384
282	762386
282	762388
282	762390
281	762392
281	762394
281	762396
281	762398
281	762400
281	762402
281	762404
280	762406
281	762408
281	762411
281	762413
281	762415
281	762417
282	762419
283	762421
284	762423
285	762425
287	762427
290	762429
294	762431
300	762433
307	762435
314	762437
323	762439
333	762441
344	762443
355	762445
367	762447
379	762449
390	762451
401	762454
410	762456
418	762458
425	762460
431	762462
434	762464
437	762466
437	762468
436	762470
433	762472
427	762474
421	762476
414	762478
406	762480
398	762482
391	762484
384	762486
377	762488
371	762490
365	762492
359	762494
356	762496
351	762498
345	762500
340	762502
335	762504
330	762506
325	762508
320	762510
316	762512
312	762514
308	762516
304	762518
300	762520
297	762522
293	762524
291	762526
287	762528
284	762530
282	762532
279	762534
277	762536
274	762539
272	762541
270	762543
268	762545
266	762547
265	762549
263	762551
262	762553
260	762555
259	762557
258	762559
257	762561
256	762563
256	762565
255	762567
254	762569
254	762571
253	762573
253	762575
252	762577
252	762579
252	762582
252	762584
252	762586
252	762588
252	762590
251	762592
252	762594
252	762596
252	762598
252	762600
253	762602
253	762604
253	762606
253	762608
254	762610
254	762612
255	762614
255	762616
256	762618
257	762620
257	762622
258	762624
258	762626
259	762628
260	762630
260	762632
261	762634
262	762636
263	762638
264	762640
265	762642
266	762644
267	762646
268	762648
269	762650
271	762652
272	762654
273	762656
274	762658
276	762660
277	762662
278	762664
280	762667
281	762669
283	762671
284	762673
286	762675
288	762677
289	762679
291	762681
292	762683
294	762685
295	762687
297	762689
298	762691
299	762693
301	762695
302	762697
304	762699
305	762701
306	762703
307	762705
308	762707
309	762710
309	762712
310	762714
310	762716
311	762718
311	762720
311	762722
311	762724
310	762726
310	762728
310	762730
309	762732
308	762734
308	762736
307	762738
306	762740
305	762742
304	762744
303	762746
302	762748
301	762750
300	762752
299	762754
298	762756
297	762758
296	762760
294	762762
293	762764
292	762766
291	762768
290	762770
289	762772
288	762774
287	762776
286	762778
285	762780
284	762782
284	762784
283	762786
282	762788
281	762790
281	762792
280	762795
280	762797
279	762799
279	762801
278	762803
278	762805
278	762807
277	762809
277	762811
277	762813
277	762815
276	762817
276	762819
276	762821
276	762823
276	762825
276	762827
276	762829
276	762831
276	762833
276	762835
276	762838
277	762840
277	762842
277	762844
277	762846
277	762848
277	762850
278	762852
278	762854
278	762856
279	762858
278	762860
279	762862
279	762864
279	762866
280	762868
280	762870
280	762872
280	762874
281	762876
281	762878
282	762880
282	762882
282	762884
283	762886
283	762888
283	762890
284	762892
284	762894
285	762896
285	762898
285	762900
286	762902
286	762904
286	762906
286	762908
287	762910
287	762912
288	762914
288	762916
288	762918
289	762920
289	762923
290	762925
289	762927
290	762929
290	762931
290	762933
291	762935
291	762937
291	762939
292	762941
292	762943
292	762945
292	762947
293	762949
293	762951
293	762953
294	762955
294	762957
294	762959
294	762961
295	762963
295	762966
295	762968
295	762970
295	762972
295	762974
296	762976
296	762978
296	762980
296	762982
297	762984
297	762986
297	762988
298	762990
297	762992
298	762994
298	762996
298	762998
298	763000
299	763002
299	763004
299	763006
299	763008
299	763010
299	763012
300	763014
300	763016
300	763018
300	763020
300	763022
301	763024
301	763026
301	763028
301	763030
302	763032
302	763034
302	763036
302	763038
302	763040
302	763042
303	763044
303	763046
303	763048
303	763051
303	763053
303	763055
303	763057
304	763059
304	763061
304	763063
304	763065
304	763067
304	763069
304	763071
304	763073
305	763075
305	763077
305	763079
305	763081
305	763083
305	763085
306	763087
306	763089
306	763091
306	763094
306	763096
306	763098
306	763100
306	763102
306	763104
306	763106
306	763108
307	763110
307	763112
307	763114
306	763116
307	763118
307	763120
307	763122
307	763124
307	763126
307	763128
308	763130
308	763132
308	763134
309	763136
310	763138
311	763140
312	763142
312	763144
313	763146
314	763148
315	763150
315	763152
316	763154
316	763156
317	763158
318	763160
318	763162
319	763164
319	763166
319	763168
319	763170
319	763172
320	763174
320	763176
319	763179
319	763181
319	763183
319	763185
318	763187
318	763189
317	763191
317	763193
317	763195
316	763197
316	763199
315	763201
315	763203
314	763205
314	763207
313	763209
313	763211
312	763213
312	763215
311	763217
311	763219
311	763222
310	763224
310	763226
310	763228
309	763230
309	763232
309	763234
308	763236
308	763238
308	763240
307	763242
307	763244
307	763246
307	763248
306	763250
306	763252
306	763254
305	763256
305	763258
305	763260
305	763262
305	763264
305	763266
305	763268
305	763270
305	763272
306	763274
306	763276
308	763278
309	763280
312	763282
316	763284
320	763286
327	763288
334	763290
342	763292
352	763294
362	763296
373	763298
385	763300
396	763302
408	763304
418	763307
428	763309
436	763311
443	763313
448	763315
452	763317
455	763319
455	763321
454	763323
451	763325
446	763327
439	763329
432	763331
424	763333
417	763335
409	763337
402	763339
395	763341
389	763343
383	763345
377	763347
371	763350
366	763352
361	763354
356	763356
351	763358
346	763360
341	763362
337	763364
332	763366
328	763368
325	763370
321	763372
317	763374
314	763376
311	763378
308	763380
304	763382
302	763384
299	763386
296	763388
294	763390
293	763392
290	763394
288	763396
286	763398
284	763400
283	763402
281	763404
279	763406
278	763408
276	763410
275	763412
274	763414
273	763416
272	763418
271	763420
270	763422
270	763424
269	763426
268	763428
268	763430
267	763432
267	763435
267	763437
266	763439
266	763441
266	763443
266	763445
266	763447
266	763449
266	763451
266	763453
266	763455
267	763457
267	763459
267	763461
268	763463
268	763465
268	763467
269	763469
269	763471
270	763473
270	763475
271	763478
271	763480
272	763482
273	763484
273	763486
274	763488
275	763490
276	763492
277	763494
278	763496
279	763498
280	763500
281	763502
282	763504
283	763506
284	763508
286	763510
287	763512
288	763514
290	763516
291	763518
292	763520
294	763522
295	763524
297	763526
298	763528
300	763530
301	763532
303	763534
305	763536
306	763538
308	763540
309	763542
311	763544
312	763546
313	763548
315	763550
316	763552
317	763554
318	763556
319	763558
321	763560
321	763563
322	763565
322	763567
323	763569
323	763571
323	763573
323	763575
323	763577
323	763579
322	763581
322	763583
321	763585
321	763587
320	763589
319	763591
318	763593
317	763595
316	763597
315	763599
314	763601
313	763603
312	763606
311	763608
309	763610
308	763612
307	763614
306	763616
305	763618
304	763620
303	763622
302	763624
301	763626
300	763628
299	763630
298	763632
297	763634
296	763636
296	763638
295	763640
294	763642
294	763644
293	763646
293	763648
292	763650
292	763652
291	763654
291	763656
290	763658
290	763660
290	763662
289	763664
289	763666
289	763668
289	763670
289	763672
289	763674
288	763676
289	763678
288	763680
288	763682
288	763684
288	763686
288	763688
289	763691
289	763693
289	763695
289	763697
289	763699
289	763701
289	763703
289	763705
289	763707
289	763709
289	763711
289	763713
290	763715
290	763717
290	763719
291	763721
291	763723
291	763725
291	763727
291	763729
292	763731
292	763734
292	763736
292	763738
292	763740
293	763742
293	763744
293	763746
294	763748
294	763750
294	763752
294	763754
295	763756
295	763758
295	763760
296	763762
296	763764
296	763766
296	763768
297	763770
297	763772
297	763774
297	763776
297	763778
297	763780
298	763782
298	763784
298	763786
298	763788
298	763790
298	763792
298	763794
298	763796
298	763798
299	763800
299	763802
299	763804
299	763806
299	763808
299	763810
299	763812
299	763814
299	763816
299	763819
299	763821
299	763823
299	763825
300	763827
300	763829
300	763831
300	763833
300	763835
301	763837
301	763839
300	763841
301	763843
301	763845
301	763847
301	763849
301	763851
301	763853
301	763855
302	763857
302	763859
302	763862
302	763864
302	763866
302	763868
303	763870
303	763872
303	763874
303	763876
304	763878
304	763880
304	763882
304	763884
304	763886
304	763888
304	763890
304	763892
305	763894
305	763896
305	763898
305	763900
306	763902
305	763904
306	763906
306	763908
306	763910
307	763912
307	763914
307	763916
308	763918
308	763920
308	763922
308	763924
308	763926
308	763928
308	763930
308	763932
309	763934
309	763936
309	763938
309	763940
309	763942
309	763944
310	763947
310	763949
310	763951
310	763953
310	763955
311	763957
311	763959
311	763961
311	763963
311	763965
311	763967
311	763969
311	763971
312	763973
312	763975
312	763977
312	763979
312	763981
312	763983
312	763985
313	763987
313	763990
313	763992
313	763994
313	763996
313	763998
313	764000
314	764002
313	764004
314	764006
314	764008
314	764010
314	764012
314	764014
314	764016
314	764018
314	764020
314	764022
314	764024
315	764026
315	764028
315	764030
315	764032
315	764034
315	764036
315	764038
315	764040
315	764042
315	764044
315	764046
315	764048
316	764050
316	764052
316	764054
316	764056
316	764058
316	764060
316	764062
316	764064
316	764066
316	764068
316	764070
316	764072
316	764075
317	764077
317	764079
317	764081
317	764083
317	764085
317	764087
317	764089
317	764091
317	764093
318	764095
317	764097
318	764099
317	764101
317	764103
318	764105
317	764107
318	764109
318	764111
318	764113
318	764115
318	764118
318	764120
318	764122
317	764124
318	764126
318	764128
318	764130
318	764132
318	764134
318	764136
318	764138
318	764140
318	764142
318	764144
318	764146
318	764148
318	764150
318	764152
318	764154
318	764156
318	764158
318	764160
318	764162
318	764164
318	764166
318	764168
318	764170
318	764172
318	764174
318	764176
318	764178
318	764180
318	764182
318	764184
318	764186
317	764188
317	764190
317	764192
317	764194
318	764196
317	764198
318	764200
318	764203
317	764205
317	764207
317	764209
317	764211
317	764213
317	764215
317	764217
318	764219
318	764221
318	764223
319	764225
320	764227
321	764229
321	764231
322	764233
323	764235
324	764237
324	764239
325	764241
325	764243
326	764246
326	764248
326	764250
327	764252
327	764254
327	764256
327	764258
328	764260
328	764262
328	764264
328	764266
328	764268
327	764270
327	764272
326	764274
326	764276
325	764278
325	764280
324	764282
324	764284
324	764286
324	764288
323	764290
322	764292
322	764294
321	764296
321	764298
320	764300
320	764302
319	764304
319	764306
319	764308
318	764310
318	764312
318	764314
317	764316
317	764318
316	764320
316	764322
316	764324
315	764326
315	764328
315	764331
315	764333
314	764335
314	764337
314	764339
313	764341
313	764343
313	764345
313	764347
313	764349
313	764351
312	764353
312	764355
312	764357
312	764359
312	764361
312	764363
313	764365
313	764367
313	764369
314	764371
315	764374
317	764376
320	764378
323	764380
328	764382
334	764384
342	764386
350	764388
360	764390
370	764392
380	764394
392	764396
403	764398
414	764400
424	764402
433	764404
440	764406
447	764408
452	764410
456	764412
458	764414
458	764416
458	764418
456	764420
452	764422
447	764424
440	764426
433	764428
426	764430
418	764432
411	764434
404	764436
398	764438
392	764440
386	764442
381	764444
375	764446
370	764448
365	764450
359	764452
355	764454
350	764456
346	764459
342	764461
337	764463
334	764465
330	764467
326	764469
323	764471
319	764473
316	764475
313	764477
310	764479
308	764481
305	764483
303	764485
300	764487
298	764489
296	764491
294	764493
292	764495
290	764497
289	764499
287	764502
286	764504
284	764506
283	764508
282	764510
281	764512
280	764514
279	764516
278	764518
277	764520
277	764522
276	764524
275	764526
275	764528
275	764530
274	764532
274	764534
274	764536
274	764538
273	764540
273	764542
273	764544
273	764546
273	764548
273	764550
273	764552
273	764554
274	764556
274	764558
274	764560
275	764562
275	764564
275	764566
276	764568
276	764570
277	764572
277	764574
278	764576
279	764578
279	764580
280	764582
281	764584
281	764587
282	764589
283	764591
284	764593
285	764595
286	764597
287	764599
288	764601
289	764603
290	764605
292	764607
293	764609
294	764611
296	764613
297	764615
299	764617
300	764619
301	764621
303	764623
304	764625
306	764627
307	764630
309	764632
310	764634
311	764636
313	764638
314	764640
316	764642
317	764644
318	764646
320	764648
321	764650
322	764652
323	764654
324	764656
325	764658
326	764660
327	764662
327	764664
328	764666
328	764668
328	764670
328	764672
328	764674
328	764676
328	764678
327	764680
327	764682
327	764684
326	764686
325	764688
324	764690
324	764692
323	764694
321	764696
320	764698
319	764700
318	764702
317	764704
316	764706
315	764708
313	764710
312	764712
311	764715
310	764717
309	764719
308	764721
307	764723
306	764725
305	764727
304	764729
303	764731
302	764733
301	764735
301	764737
300	764739
299	764741
298	764743
298	764745
297	764747
296	764749
296	764751
295	764753
295	764755
295	764758
295	764760
294	764762
294	764764
293	764766
293	764768
293	764770
293	764772
293	764774
292	764776
293	764778
292	764780
292	764782
292	764784
292	764786
292	764788
292	764790
292	764792
292	764794
293	764796
293	764798
293	764800
293	764802
293	764804
293	764806
293	764808
293	764810
293	764812
294	764814
294	764816
294	764818
294	764820
294	764822
294	764824
295	764826
294	764828
295	764830
295	764832
295	764834
295	764836
295	764838
296	764840
296	764843
296	764845
296	764847
296	764849
296	764851
296	764853
297	764855
297	764857
297	764859
297	764861
297	764863
297	764865
297	764867
297	764869
298	764871
298	764873
298	764875
298	764877
298	764879
298	764881
298	764883
298	764886
298	764888
298	764890
298	764892
298	764894
298	764896
298	764898
298	764900
298	764902
299	764904
299	764906
298	764908
299	764910
298	764912
299	764914
299	764916
299	764918
299	764920
299	764922
299	764924
299	764926
299	764928
299	764930
299	764932
299	764934
299	764936
299	764938
299	764940
299	764942
299	764944
299	764946
299	764948
299	764950
300	764952
300	764954
300	764956
300	764958
300	764960
300	764962
300	764964
300	764966
300	764968
300	764971
300	764973
301	764975
301	764977
301	764979
301	764981
301	764983
301	764985
301	764987
301	764989
301	764991
301	764993
302	764995
302	764997
302	764999
302	765001
302	765003
302	765005
302	765007
302	765009
302	765011
302	765014
302	765016
303	765018
303	765020
303	765022
303	765024
303	765026
303	765028
303	765030
303	765032
303	765034
303	765036
303	765038
304	765040
304	765042
304	765044
304	765046
304	765048
304	765050
304	765052
304	765054
304	765056
304	765058
304	765060
304	765062
304	765064
305	765066
305	765068
305	765070
304	765072
305	765074
305	765076
305	765078
305	765080
305	765082
305	765084
305	765086
305	765088
305	765090
305	765092
305	765094
305	765096
306	765099
306	765101
306	765103
306	765105
306	765107
306	765109
306	765111
306	765113
306	765115
306	765117
306	765119
306	765121
306	765123
306	765125
306	765127
307	765129
306	765131
307	765133
307	765135
307	765137
307	765139
307	765142
307	765144
307	765146
307	765148
307	765150
307	765152
307	765154
307	765156
307	765158
307	765160
308	765162
307	765164
308	765166
307	765168
308	765170
308	765172
308	765174
308	765176
308	765178
308	765180
308	765182
308	765184
308	765186
308	765188
308	765190
308	765192
308	765194
308	765196
308	765198
308	765200
308	765202
308	765204
308	765206
308	765208
308	765210
308	765212
308	765214
309	765216
309	765218
308	765220
309	765222
309	765224
309	765227
309	765229
309	765231
309	765233
309	765235
309	765237
309	765239
309	765241
309	765243
309	765245
309	765247
310	765249
309	765251
309	765253
310	765255
310	765257
309	765259
310	765261
310	765263
310	765265
310	765267
310	765270
310	765272
309	765274
310	765276
310	765278
310	765280
310	765282
310	765284
310	765286
310	765288
310	765290
310	765292
310	765294
310	765296
310	765298
310	765300
310	765302
310	765304
310	765306
310	765308
310	765310
310	765312
311	765314
310	765316
310	765318
310	765320
311	765322
310	765324
310	765326
311	765328
310	765330
311	765332
311	765334
311	765336
310	765338
310	765340
311	765342
311	765344
311	765346
310	765348
310	765350
311	765352
311	765355
311	765357
310	765359
311	765361
310	765363
310	765365
311	765367
311	765369
310	765371
311	765373
310	765375
310	765377
311	765379
310	765381
310	765383
310	765385
311	765387
310	765389
310	765391
310	765393
310	765395
310	765398
310	765400
310	765402
310	765404
311	765406
310	765408
310	765410
310	765412
310	765414
310	765416
310	765418
310	765420
310	765422
310	765424
310	765426
311	765428
310	765430
310	765432
310	765434
310	765436
310	765438
310	765440
309	765442
309	765444
309	765446
309	765448
309	765450
309	765452
309	765454
309	765456
309	765458
310	765460
311	765462
311	765464
312	765466
313	765468
314	765470
315	765472
315	765474
316	765476
316	765478
317	765480
317	765483
318	765485
319	765487
319	765489
319	765491
319	765493
319	765495
320	765497
320	765499
320	765501
320	765503
320	765505
319	765507
319	765509
319	765511
318	765513
318	765515
317	765517
317	765519
316	765521
315	765523
315	765526
314	765528
314	765530
313	765532
313	765534
312	765536
312	765538
311	765540
311	765542
310	765544
310	765546
309	765548
309	765550
308	765552
308	765554
308	765556
307	765558
307	765560
307	765562
306	765564
306	765566
306	765568
306	765570
305	765572
305	765574
305	765576
305	765578
304	765580
304	765582
304	765584
304	765586
304	765588
304	765590
303	765592
304	765594
304	765596
304	765598
304	765600
304	765602
305	765604
305	765606
307	765608
308	765611
311	765613
314	765615
319	765617
325	765619
333	765621
341	765623
350	765625
360	765627
371	765629
383	765631
395	765633
407	765635
418	765637
428	765639
437	765641
445	765643
451	765645
456	765647
459	765649
460	765651
460	765654
458	765656
453	765658
448	765660
440	765662
433	765664
424	765666
416	765668
409	765670
401	765672
395	765674
388	765676
382	765678
376	765680
371	765682
365	765684
359	765686
354	765688
349	765690
344	765692
339	765694
337	765696
333	765698
328	765700
324	765702
320	765704
317	765706
313	765708
310	765710
306	765712
303	765714
300	765716
297	765718
295	765720
292	765722
289	765724
287	765726
285	765728
283	765730
281	765732
279	765734
278	765736
276	765739
275	765741
273	765743
272	765745
271	765747
270	765749
269	765751
268	765753
267	765755
266	765757
265	765759
265	765761
264	765763
264	765765
264	765767
263	765769
263	765771
262	765773
262	765775
262	765777
262	765779
262	765782
262	765784
262	765786
263	765788
263	765790
263	765792
263	765794
263	765796
264	765798
264	765800
265	765802
265	765804
265	765806
266	765808
266	765810
267	765812
268	765814
268	765816
269	765818
270	765820
271	765822
271	765824
272	765826
273	765828
274	765830
275	765832
276	765834
277	765836
278	765838
279	765840
280	765842
282	765844
283	765846
285	765848
286	765850
287	765852
289	765854
290	765856
292	765858
293	765860
295	765862
296	765864
298	765867
300	765869
301	765871
303	765873
304	765875
306	765877
307	765879
309	765881
310	765883
311	765885
313	765887
314	765889
315	765891
316	765893
317	765895
318	765897
319	765899
319	765901
320	765903
320	765905
321	765907
321	765910
321	765912
321	765914
320	765916
320	765918
320	765920
319	765922
319	765924
318	765926
317	765928
316	765930
315	765932
314	765934
313	765936
312	765938
311	765940
310	765942
309	765944
307	765946
306	765948
305	765950
304	765952
303	765954
302	765956
301	765958
300	765960
299	765962
297	765964
296	765966
295	765968
294	765970
293	765972
293	765974
292	765976
291	765978
290	765980
290	765982
289	765984
288	765986
288	765988
287	765990
287	765992
286	765995
286	765997
286	765999
285	766001
285	766003
285	766005
285	766007
284	766009
284	766011
284	766013
284	766015
284	766017
284	766019
284	766021
284	766023
284	766025
284	766027
284	766029
284	766031
284	766033
284	766035
284	766038
284	766040
284	766042
284	766044
284	766046
284	766048
285	766050
285	766052
285	766054
286	766056
286	766058
286	766060
286	766062
287	766064
287	766066
287	766068
288	766070
287	766072
288	766074
288	766076
288	766078
288	766080
289	766082
289	766084
289	766086
289	766088
289	766090
290	766092
290	766094
290	766096
290	766098
290	766100
290	766102
290	766104
291	766106
291	766108
291	766110
291	766112
291	766114
291	766116
292	766118
292	766120
292	766123
292	766125
292	766127
292	766129
292	766131
292	766133
292	766135
293	766137
292	766139
292	766141
293	766143
293	766145
293	766147
293	766149
293	766151
293	766153
293	766155
293	766157
293	766159
293	766161
294	766163
293	766166
294	766168
294	766170
294	766172
294	766174
294	766176
294	766178
294	766180
294	766182
294	766184
294	766186
294	766188
294	766190
294	766192
295	766194
295	766196
295	766198
295	766200
295	766202
295	766204
295	766206
295	766208
295	766210
295	766212
296	766214
296	766216
296	766218
296	766220
296	766222
296	766224
297	766226
297	766228
297	766230
297	766232
297	766234
297	766236
297	766238
297	766240
298	766242
298	766244
298	766246
298	766248
298	766251
298	766253
299	766255
299	766257
299	766259
299	766261
299	766263
299	766265
299	766267
299	766269
300	766271
300	766273
300	766275
300	766277
300	766279
300	766281
301	766283
301	766285
301	766287
301	766289
301	766291
301	766294
301	766296
301	766298
301	766300
301	766302
302	766304
302	766306
302	766308
302	766310
302	766312
302	766314
302	766316
302	766318
302	766320
302	766322
302	766324
302	766326
303	766328
303	766330
303	766332
303	766334
303	766336
303	766338
303	766340
303	766342
303	766344
303	766346
303	766348
303	766350
303	766352
303	766354
303	766356
303	766358
304	766360
304	766362
303	766364
304	766366
304	766368
304	766370
304	766372
304	766374
304	766376
304	766379
304	766381
304	766383
304	766385
304	766387
304	766389
304	766391
304	766393
305	766395
304	766397
305	766399
305	766401
305	766403
305	766405
305	766407
305	766409
305	766411
305	766413
305	766415
305	766417
305	766419
305	766422
305	766424
305	766426
305	766428
305	766430
305	766432
305	766434
305	766436
305	766438
305	766440
305	766442
305	766444
306	766446
305	766448
305	766450
305	766452
306	766454
305	766456
305	766458
305	766460
305	766462
305	766464
306	766466
305	766468
305	766470
305	766472
305	766474
305	766476
305	766478
305	766480
305	766482
305	766484
305	766486
306	766488
305	766490
306	766492
305	766494
306	766496
306	766498
306	766500
306	766502
306	766504
306	766507
305	766509
306	766511
306	766513
305	766515
305	766517
305	766519
305	766521
305	766523
306	766525
305	766527
305	766529
305	766531
305	766533
305	766535
305	766537
306	766539
305	766541
305	766543
305	766545
305	766547
305	766550
305	766552
305	766554
305	766556
305	766558
305	766560
305	766562
305	766564
305	766566
306	766568
306	766570
307	766572
308	766574
308	766576
309	766578
310	766580
311	766582
312	766584
312	766586
312	766588
313	766590
314	766592
314	766594
314	766596
315	766598
315	766600
315	766602
316	766604
316	766606
316	766608
316	766610
316	766612
316	766614
316	766616
315	766618
315	766620
314	766622
314	766624
313	766626
313	766628
312	766630
312	766632
311	766635
311	766637
310	766639
310	766641
309	766643
309	766645
308	766647
308	766649
307	766651
307	766653
306	766655
306	766657
305	766659
305	766661
305	766663
304	766665
304	766667
304	766669
304	766671
303	766673
303	766675
303	766678
303	766680
302	766682
302	766684
302	766686
302	766688
302	766690
301	766692
301	766694
301	766696
301	766698
301	766700
301	766702
301	766704
301	766706
301	766708
301	766710
302	766712
302	766714
303	766716
305	766718
305	766720
308	766722
311	766724
315	766726
321	766728
328	766730
335	766732
344	766734
354	766736
365	766738
376	766740
388	766742
399	766744
410	766746
420	766748
428	766750
436	766752
442	766754
447	766756
450	766758
451	766760
451	766763
449	766765
446	766767
440	766769
433	766771
426	766773
418	766775
411	766777
403	766779
396	766781
390	766783
383	766785
378	766787
372	766789
366	766791
361	766793
356	766795
351	766797
346	766799
341	766801
336	766803
332	766806
328	766808
324	766810
320	766812
316	766814
313	766816
309	766818
306	766820
303	766822
300	766824
297	766826
294	766828
292	766830
290	766832
287	766834
285	766836
283	766838
281	766840
279	766842
278	766844
276	766846
275	766848
274	766850
273	766852
272	766854
270	766856
269	766858
269	766860
268	766862
267	766864
266	766866
265	766868
265	766870
264	766872
264	766874
263	766876
263	766878
263	766880
263	766882
263	766884
263	766886
263	766888
263	766891
263	766893
263	766895
263	766897
263	766899
263	766901
264	766903
264	766905
264	766907
265	766909
265	766911
266	766913
266	766915
267	766917
267	766919
268	766921
269	766923
269	766925
270	766927
271	766929
271	766931
272	766934
273	766936
274	766938
275	766940
276	766942
277	766944
278	766946
279	766948
280	766950
281	766952
282	766954
284	766956
285	766958
287	766960
288	766962
290	766964
291	766966
293	766968
294	766970
296	766972
298	766974
298	766976
300	766978
301	766980
303	766982
305	766984
306	766986
308	766988
309	766990
311	766992
312	766994
313	766996
315	766998
316	767000
317	767002
318	767004
319	767006
319	767008
320	767010
321	767012
321	767014
321	767016
321	767019
321	767021
321	767023
321	767025
320	767027
320	767029
319	767031
318	767033
317	767035
316	767037
315	767039
314	767041
313	767043
312	767045
311	767047
309	767049
308	767051
307	767053
305	767055
304	767057
303	767059
302	767062
300	767064
299	767066
298	767068
297	767070
296	767072
294	767074
294	767076
293	767078
291	767080
291	767082
290	767084
289	767086
289	767088
288	767090
287	767092
286	767094
286	767096
285	767098
285	767100
284	767102
284	767104
283	767106
283	767108
283	767110
283	767112
282	767114
282	767116
282	767118
281	767120
282	767122
281	767124
281	767126
281	767128
281	767130
281	767132
281	767134
281	767136
281	767138
281	767140
281	767142
281	767144
281	767147
281	767149
281	767151
281	767153
282	767155
282	767157
282	767159
282	767161
282	767163
282	767165
283	767167
283	767169
283	767171
283	767173
284	767175
284	767177
284	767179
284	767181
285	767183
285	767185
285	767187
285	767190
286	767192
286	767194
286	767196
286	767198
287	767200
287	767202
287	767204
287	767206
287	767208
288	767210
288	767212
288	767214
288	767216
288	767218
289	767220
289	767222
289	767224
289	767226
289	767228
289	767230
289	767232
289	767234
290	767236
290	767238
290	767240
290	767242
290	767244
290	767246
290	767248
291	767250
291	767252
291	767254
291	767256
291	767258
291	767260
291	767262
291	767264
291	767266
291	767268
292	767270
292	767272
292	767275
292	767277
292	767279
292	767281
292	767283
293	767285
293	767287
293	767289
293	767291
293	767293
293	767295
293	767297
293	767299
294	767301
294	767303
294	767305
294	767307
294	767309
294	767311
294	767313
294	767315
294	767318
295	767320
295	767322
295	767324
295	767326
295	767328
295	767330
296	767332
296	767334
296	767336
296	767338
296	767340
296	767342
296	767344
297	767346
297	767348
297	767350
297	767352
297	767354
297	767356
297	767358
297	767360
298	767362
298	767364
298	767366
298	767368
298	767370
298	767372
299	767374
299	767376
299	767378
299	767380
299	767382
299	767384
299	767386
300	767388
300	767390
300	767392
300	767394
300	767396
300	767398
300	767400
300	767403
300	767405
300	767407
300	767409
300	767411
300	767413
300	767415
300	767417
301	767419
301	767421
301	767423
301	767425
301	767427
301	767429
301	767431
301	767433
301	767435
301	767437
301	767439
301	767441
302	767443
302	767446
301	767448
301	767450
301	767452
302	767454
302	767456
302	767458
302	767460
302	767462
302	767464
302	767466
302	767468
302	767470
302	767472
302	767474
302	767476
302	767478
302	767480
302	767482
303	767484
302	767486
303	767488
303	767490
302	767492
303	767494
303	767496
303	767498
303	767500
303	767502
303	767504
303	767506
303	767508
303	767510
303	767512
303	767514
303	767516
303	767518
303	767520
303	767522
303	767524
303	767526
303	767528
303	767531
303	767533
303	767535
303	767537
303	767539
303	767541
303	767543
303	767545
303	767547
303	767549
303	767551
303	767553
303	767555
303	767557
303	767559
303	767561
303	767563
303	767565
303	767567
303	767569
303	767571
303	767574
303	767576
303	767578
303	767580
303	767582
303	767584
303	767586
303	767588
303	767590
303	767592
304	767594
304	767596
305	767598
306	767600
307	767602
307	767604
308	767606
309	767608
310	767610
310	767612
311	767614
311	767616
311	767618
312	767620
313	767622
313	767624
314	767626
314	767628
314	767630
314	767632
315	767634
314	767636
314	767638
314	767640
314	767642
314	767644
314	767646
313	767648
313	767650
312	767652
312	767654
311	767656
311	767659
311	767661
310	767663
310	767665
309	767667
309	767669
308	767671
308	767673
307	767675
307	767677
307	767679
306	767681
305	767683
305	767685
305	767687
304	767689
304	767691
304	767693
304	767695
303	767697
303	767699
303	767702
303	767704
302	767706
302	767708
302	767710
302	767712
302	767714
301	767716
301	767718
301	767720
301	767722
301	767724
301	767726
301	767728
302	767730
302	767732
303	767734
303	767736
305	767738
307	767740
309	767742
311	767744
315	767746
321	767748
328	767750
335	767752
344	767754
354	767756
364	767758
375	767760
387	767762
399	767764
410	767766
420	767768
429	767770
437	767772
444	767774
449	767776
453	767778
455	767780
455	767782
454	767784
450	767787
445	767789
439	767791
431	767793
423	767795
416	767797
408	767799
400	767801
394	767803
388	767805
381	767807
375	767809
370	767811
364	767813
358	767815
353	767817
348	767819
343	767821
338	767823
334	767825
329	767827
325	767830
321	767832
317	767834
313	767836
310	767838
306	767840
303	767842
300	767844
297	767846
294	767848
291	767850
289	767852
286	767854
284	767856
282	767858
280	767860
278	767862
277	767864
275	767866
273	767868
272	767870
271	767872
270	767874
269	767876
267	767878
266	767880
265	767882
265	767884
264	767886
263	767888
263	767890
262	767892
262	767894
261	767896
261	767898
261	767900
260	767902
260	767904
260	767906
260	767908
260	767910
260	767912
260	767915
260	767917
260	767919
261	767921
261	767923
261	767925
262	767927
262	767929
263	767931
263	767933
264	767935
264	767937
264	767939
265	767941
266	767943
266	767945
267	767947
268	767949
269	767951
270	767953
270	767955
271	767958
272	767960
273	767962
274	767964
275	767966
277	767968
278	767970
279	767972
280	767974
281	767976
283	767978
284	767980
286	767982
287	767984
289	767986
290	767988
292	767990
294	767992
295	767994
297	767996
298	767998
299	768000
301	768002
302	768004
304	768006
305	768008
307	768010
308	768012
310	768014
311	768016
312	768018
314	768020
315	768022
316	768024
317	768026
317	768028
318	768030
319	768032
319	768034
319	768036
320	768038
320	768040
320	768043
319	768045
319	768047
319	768049
318	768051
317	768053
316	768055
315	768057
314	768059
313	768061
312	768063
311	768065
310	768067
309	768069
308	768071
306	768073
305	768075
304	768077
303	768079
302	768081
300	768083
300	768086
298	768088
297	768090
296	768092
295	768094
294	768096
293	768098
293	768100
292	768102
291	768104
290	768106
289	768108
289	768110
288	768112
287	768114
287	768116
286	768118
286	768120
285	768122
285	768124
285	768126
284	768128
284	768130
284	768132
284	768134
283	768136
283	768138
283	768140
283	768142
282	768144
282	768146
282	768148
282	768150
282	768152
282	768154
282	768156
282	768158
282	768160
282	768162
282	768164
282	768166
282	768168
282	768171
282	768173
283	768175
283	768177
283	768179
283	768181
283	768183
283	768185
284	768187
284	768189
284	768191
284	768193
284	768195
285	768197
285	768199
285	768201
285	768203
286	768205
286	768207
286	768209
286	768211
286	768214
287	768216
287	768218
287	768220
287	768222
288	768224
288	768226
288	768228
288	768230
288	768232
289	768234
289	768236
289	768238
289	768240
289	768242
290	768244
290	768246
290	768248
290	768250
290	768252
290	768254
290	768256
290	768258
291	768260
291	768262
291	768264
291	768266
291	768268
291	768270
291	768272
291	768274
292	768276
292	768278
292	768280
292	768282
292	768284
292	768286
292	768288
292	768290
292	768292
292	768294
293	768296
293	768299
293	768301
293	768303
293	768305
293	768307
293	768309
293	768311
293	768313
293	768315
293	768317
294	768319
294	768321
294	768323
294	768325
294	768327
294	768329
294	768331
294	768333
294	768335
294	768337
294	768339
294	768342
295	768344
295	768346
295	768348
295	768350
295	768352
295	768354
296	768356
296	768358
296	768360
296	768362
296	768364
296	768366
296	768368
297	768370
296	768372
297	768374
297	768376
297	768378
297	768380
297	768382
297	768384
297	768386
298	768388
298	768390
298	768392
298	768394
298	768396
298	768398
298	768400
298	768402
299	768404
299	768406
299	768408
299	768410
299	768412
299	768414
299	768416
299	768418
299	768420
299	768422
299	768424
299	768427
299	768429
299	768431
299	768433
299	768435
299	768437
299	768439
299	768441
299	768443
299	768445
300	768447
300	768449
300	768451
300	768453
300	768455
300	768457
300	768459
300	768461
300	768463
300	768465
300	768467
300	768470
300	768472
300	768474
300	768476
300	768478
300	768480
300	768482
301	768484
301	768486
301	768488
301	768490
301	768492
301	768494
301	768496
301	768498
301	768500
301	768502
301	768504
301	768506
301	768508
301	768510
301	768512
301	768514
302	768516
302	768518
302	768520
302	768522
302	768524
302	768526
302	768528
302	768530
302	768532
302	768534
302	768536
302	768538
302	768540
302	768542
302	768544
302	768546
302	768548
302	768550
302	768552
302	768555
302	768557
303	768559
302	768561
303	768563
302	768565
302	768567
303	768569
302	768571
303	768573
302	768575
303	768577
302	768579
303	768581
303	768583
303	768585
303	768587
303	768589
303	768591
303	768593
303	768595
303	768598
303	768600
303	768602
303	768604
303	768606
303	768608
303	768610
303	768612
303	768614
303	768616
303	768618
303	768620
303	768622
303	768624
303	768626
303	768628
303	768630
303	768632
303	768634
304	768636
303	768638
304	768640
304	768642
304	768644
304	768646
304	768648
304	768650
304	768652
304	768654
304	768656
304	768658
303	768660
304	768662
303	768664
304	768666
304	768668
303	768670
303	768672
303	768674
303	768676
303	768678
303	768680
303	768683
304	768685
304	768687
304	768689
305	768691
305	768693
306	768695
307	768697
308	768699
309	768701
309	768703
310	768705
311	768707
311	768709
312	768711
313	768713
313	768715
313	768717
314	768719
314	768721
314	768723
314	768726
315	768728
314	768730
314	768732
315	768734
314	768736
314	768738
314	768740
313	768742
313	768744
313	768746
312	768748
311	768750
311	768752
310	768754
310	768756
310	768758
309	768760
308	768762
308	768764
308	768766
307	768768
307	768770
306	768772
306	768774
305	768776
305	768778
305	768780
304	768782
304	768784
304	768786
304	768788
303	768790
303	768792
302	768794
302	768796
302	768798
302	768800
301	768802
301	768804
301	768806
301	768808
301	768811
300	768813
300	768815
300	768817
300	768819
300	768821
300	768823
300	768825
300	768827
300	768829
301	768831
301	768833
302	768835
303	768837
305	768839
307	768841
312	768843
317	768845
324	768847
331	768849
340	768851
350	768854
360	768856
372	768858
383	768860
395	768862
406	768864
415	768866
424	768868
432	768870
438	768872
443	768874
446	768876
447	768878
448	768880
446	768882
443	768884
437	768886
431	768888
424	768890
416	768892
409	768894
405	768896
398	768898
391	768900
384	768902
379	768904
373	768906
368	768908
362	768910
357	768912
352	768914
347	768916
342	768918
337	768920
333	768922
329	768924
325	768926
321	768928
317	768930
313	768932
310	768934
307	768936
304	768939
301	768941
298	768943
295	768945
293	768947
290	768949
288	768951
286	768953
284	768955
282	768957
280	768959
278	768961
277	768963
275	768965
274	768967
273	768969
272	768971
271	768973
270	768975
269	768977
268	768979
267	768982
267	768984
266	768986
265	768988
265	768990
265	768992
264	768994
264	768996
264	768998
264	769000
264	769002
263	769004
263	769006
263	769008
263	769010
264	769012
264	769014
264	769016
264	769018
265	769020
265	769022
265	769024
266	769026
266	769028
267	769030
267	769032
268	769034
268	769036
269	769038
269	769040
270	769042
271	769044
272	769046
272	769048
273	769050
274	769052
275	769054
276	769056
277	769058
278	769060
279	769062
280	769064
281	769067
283	769069
284	769071
285	769073
287	769075
288	769077
289	769079
291	769081
293	769083
294	769085
296	769087
297	769089
299	769091
300	769093
302	769095
304	769097
305	769099
307	769101
308	769103
310	769105
311	769107
313	769110
314	769112
315	769114
317	769116
318	769118
319	769120
320	769122
321	769124
322	769126
322	769128
323	769130
323	769132
324	769134
324	769136
323	769138
324	769140
323	769142
323	769144
322	769146
322	769148
321	769150
320	769152
319	769154
318	769156
317	769158
316	769160
315	769162
314	769164
312	769166
311	769168
310	769170
308	769172
307	769174
306	769176
305	769178
303	769180
302	769182
301	769184
300	769186
298	769188
297	769190
296	769192
295	769195
294	769197
293	769199
292	769201
292	769203
291	769205
290	769207
289	769209
289	769211
288	769213
287	769215
287	769217
286	769219
286	769221
285	769223
285	769225
285	769227
284	769229
284	769231
284	769233
283	769235
283	769238
283	769240
283	769242
283	769244
283	769246
282	769248
282	769250
283	769252
282	769254
283	769256
283	769258
283	769260
283	769262
283	769264
283	769266
283	769268
283	769270
284	769272
284	769274
284	769276
284	769278
284	769280
284	769282
284	769284
285	769286
285	769288
285	769290
285	769292
286	769294
286	769296
286	769298
286	769300
287	769302
287	769304
287	769306
288	769308
288	769310
288	769312
288	769314
288	769316
288	769318
288	769320
289	769323
289	769325
289	769327
289	769329
289	769331
289	769333
289	769335
290	769337
290	769339
290	769341
290	769343
290	769345
290	769347
290	769349
291	769351
291	769353
291	769355
291	769357
291	769359
291	769361
291	769363
291	769366
292	769368
291	769370
292	769372
291	769374
292	769376
292	769378
292	769380
292	769382
292	769384
292	769386
292	769388
292	769390
292	769392
292	769394
292	769396
292	769398
293	769400
292	769402
293	769404
293	769406
293	769408
293	769410
293	769412
293	769414
293	769416
293	769418
293	769420
294	769422
293	769424
293	769426
294	769428
294	769430
294	769432
294	769434
294	769436
294	769438
294	769440
294	769442
295	769444
295	769446
295	769448
295	769451
295	769453
295	769455
295	769457
295	769459
295	769461
296	769463
296	769465
296	769467
296	769469
296	769471
296	769473
296	769475
297	769477
297	769479
297	769481
297	769483
297	769485
297	769487
297	769489
298	769491
297	769494
297	769496
298	769498
298	769500
298	769502
298	769504
298	769506
298	769508
298	769510
299	769512
299	769514
299	769516
299	769518
299	769520
299	769522
299	769524
299	769526
299	769528
299	769530
300	769532
300	769534
300	769536
300	769538
300	769540
300	769542
300	769544
300	769546
300	769548
301	769550
300	769552
301	769554
301	769556
301	769558
301	769560
301	769562
301	769564
301	769566
301	769568
301	769570
301	769572
301	769574
301	769576
301	769579
301	769581
301	769583
302	769585
302	769587
302	769589
302	769591
302	769593
302	769595
302	769597
302	769599
302	769601
302	769603
302	769605
302	769607
302	769609
302	769611
302	769613
302	769615
303	769617
303	769619
303	769622
303	769624
303	769626
303	769628
303	769630
303	769632
303	769634
303	769636
303	769638
303	769640
303	769642
303	769644
303	769646
303	769648
304	769650
303	769652
304	769654
303	769656
304	769658
304	769660
303	769662
304	769664
304	769666
304	769668
304	769670
304	769672
304	769674
304	769676
304	769678
304	769680
304	769682
304	769684
304	769686
304	769688
304	769690
304	769692
304	769694
304	769696
304	769698
304	769700
304	769702
304	769704
304	769707
304	769709
304	769711
304	769713
304	769715
304	769717
304	769719
304	769721
304	769723
304	769725
304	769727
304	769729
304	769731
304	769733
304	769735
304	769737
304	769739
304	769741
304	769743
304	769745
304	769747
304	769750
304	769752
304	769754
304	769756
304	769758
304	769760
304	769762
304	769764
304	769766
304	769768
304	769770
304	769772
304	769774
304	769776
304	769778
304	769780
304	769782
304	769784
304	769786
304	769788
304	769790
304	769792
305	769794
304	769796
304	769798
304	769800
304	769802
304	769804
305	769806
305	769808
305	769810
304	769812
305	769814
304	769816
304	769818
305	769820
304	769822
304	769824
304	769826
304	769828
305	769830
305	769832
305	769835
305	769837
305	769839
305	769841
305	769843
304	769845
305	769847
305	769849
305	769851
305	769853
305	769855
304	769857
305	769859
304	769861
304	769863
305	769865
305	769867
305	769869
305	769871
305	769873
305	769875
305	769878
305	769880
305	769882
305	769884
305	769886
305	769888
305	769890
305	769892
305	769894
305	769896
304	769898
304	769900
305	769902
305	769904
305	769906
305	769908
305	769910
304	769912
304	769914
305	769916
304	769918
304	769920
304	769922
305	769924
304	769926
304	769928
305	769930
304	769932
304	769934
305	769936
304	769938
305	769940
304	769942
304	769944
305	769946
304	769948
304	769950
304	769952
304	769954
304	769956
304	769958
304	769960
304	769963
304	769965
304	769967
304	769969
304	769971
305	769973
305	769975
305	769977
305	769979
305	769981
305	769983
305	769985
305	769987
305	769989
305	769991
305	769993
305	769995
305	769997
305	769999
305	770001
305	770003
305	770006
305	770008
305	770010
305	770012
305	770014
305	770016
305	770018
305	770020
305	770022
305	770024
305	770026
305	770028
305	770030
305	770032
305	770034
305	770036
305	770038
305	770040
304	770042
304	770044
304	770046
304	770048
304	770050
303	770052
303	770054
303	770056
303	770058
302	770060
302	770062
302	770064
302	770066
302	770068
303	770070
303	770072
304	770074
305	770076
305	770078
306	770080
306	770082
306	770084
307	770086
307	770088
307	770091
307	770093
307	770095
308	770097
308	770099
308	770101
308	770103
308	770105
308	770107
308	770109
308	770111
308	770113
308	770115
308	770117
308	770119
307	770121
307	770123
307	770125
307	770127
306	770129
306	770131
306	770134
306	770136
305	770138
305	770140
305	770142
305	770144
305	770146
305	770148
305	770150
304	770152
304	770154
304	770156
304	770158
304	770160
304	770162
304	770164
304	770166
304	770168
304	770170
304	770172
304	770174
303	770176
303	770178
304	770180
304	770182
304	770184
304	770186
304	770188
305	770190
305	770192
306	770194
307	770196
309	770198
311	770200
314	770202
318	770204
324	770206
331	770208
338	770210
347	770212
357	770214
368	770216
380	770219
391	770221
403	770223
415	770225
426	770227
435	770229
444	770231
451	770233
456	770235
460	770237
463	770239
463	770241
462	770243
458	770245
453	770247
446	770249
438	770251
431	770253
422	770255
415	770257
407	770259
400	770262
393	770264
387	770266
381	770268
375	770270
369	770272
363	770274
358	770276
353	770278
347	770280
343	770282
338	770284
334	770286
329	770288
325	770290
321	770292
317	770294
313	770296
309	770298
306	770300
303	770302
301	770304
298	770306
295	770308
293	770310
290	770312
288	770314
286	770316
283	770318
281	770320
279	770322
277	770324
276	770326
274	770328
272	770330
271	770332
270	770334
269	770336
267	770338
266	770340
265	770342
264	770344
264	770347
263	770349
263	770351
262	770353
261	770355
261	770357
261	770359
261	770361
260	770363
260	770365
259	770367
260	770369
259	770371
259	770373
260	770375
260	770377
260	770379
260	770381
260	770383
260	770385
261	770387
261	770390
261	770392
262	770394
262	770396
263	770398
263	770400
264	770402
264	770404
265	770406
265	770408
266	770410
267	770412
268	770414
269	770416
269	770418
270	770420
271	770422
272	770424
273	770426
274	770428
276	770430
276	770432
277	770434
278	770436
280	770438
281	770440
283	770442
284	770444
285	770446
287	770448
289	770450
290	770452
292	770454
293	770456
295	770458
296	770460
298	770462
300	770464
301	770466
303	770468
304	770470
306	770472
307	770475
309	770477
310	770479
311	770481
312	770483
313	770485
315	770487
315	770489
316	770491
317	770493
318	770495
318	770497
318	770499
318	770501
318	770503
318	770505
318	770507
317	770509
317	770511
317	770513
316	770515
315	770518
314	770520
313	770522
312	770524
311	770526
310	770528
309	770530
308	770532
306	770534
305	770536
304	770538
303	770540
301	770542
300	770544
299	770546
298	770548
296	770550
295	770552
294	770554
293	770556
292	770558
292	770560
291	770562
290	770564
289	770566
288	770568
288	770570
287	770572
286	770574
286	770576
285	770578
285	770580
284	770582
283	770584
283	770586
283	770588
282	770590
282	770592
281	770594
281	770596
281	770598
281	770600
281	770603
281	770605
281	770607
281	770609
281	770611
280	770613
280	770615
280	770617
280	770619
281	770621
280	770623
280	770625
281	770627
281	770629
281	770631
281	770633
281	770635
281	770637
281	770639
282	770641
282	770643
282	770646
282	770648
282	770650
282	770652
283	770654
283	770656
283	770658
283	770660
284	770662
284	770664
284	770666
284	770668
285	770670
285	770672
285	770674
285	770676
285	770678
285	770680
286	770682
286	770684
286	770686
286	770688
286	770690
287	770692
287	770694
287	770696
287	770698
287	770700
287	770702
288	770704
288	770706
288	770708
288	770710
288	770712
288	770714
288	770716
288	770718
288	770720
289	770722
288	770724
289	770726
289	770728
289	770731
289	770733
289	770735
289	770737
289	770739
289	770741
289	770743
289	770745
289	770747
289	770749
289	770751
289	770753
290	770755
289	770757
290	770759
290	770761
290	770763
290	770765
290	770767
290	770769
290	770771
290	770774
290	770776
290	770778
291	770780
290	770782
291	770784
291	770786
291	770788
291	770790
291	770792
291	770794
292	770796
292	770798
292	770800
292	770802
292	770804
292	770806
292	770808
292	770810
292	770812
292	770814
293	770816
293	770818
293	770820
293	770822
293	770824
293	770826
293	770828
294	770830
293	770832
294	770834
294	770836
294	770838
294	770840
294	770842
294	770844
294	770846
294	770848
294	770850
295	770852
295	770854
295	770856
295	770859
296	770861
296	770863
296	770865
296	770867
296	770869
296	770871
296	770873
296	770875
296	770877
296	770879
296	770881
297	770883
297	770885
297	770887
297	770889
297	770891
297	770893
297	770895
297	770897
297	770899
297	770902
298	770904
298	770906
298	770908
298	770910
298	770912
298	770914
298	770916
298	770918
298	770920
298	770922
299	770924
298	770926
299	770928
299	770930
299	770932
299	770934
299	770936
299	770938
299	770940
299	770942
299	770944
299	770946
299	770948
299	770950
299	770952
299	770954
299	770956
299	770958
299	770960
299	770962
299	770964
299	770966
299	770968
300	770970
300	770972
300	770974
300	770976
300	770978
300	770980
300	770982
300	770984
300	770987
300	770989
300	770991
300	770993
300	770995
300	770997
300	770999
300	771001
300	771003
301	771005
300	771007
301	771009
300	771011
301	771013
301	771015
301	771017
301	771019
301	771021
301	771023
301	771025
301	771027
301	771030
301	771032
301	771034
301	771036
301	771038
302	771040
302	771042
301	771044
302	771046
302	771048
302	771050
302	771052
302	771054
302	771056
302	771058
302	771060
302	771062
302	771064
302	771066
302	771068
302	771070
302	771072
302	771074
303	771076
302	771078
302	771080
303	771082
303	771084
303	771086
303	771088
303	771090
303	771092
303	771094
303	771096
303	771098
303	771100
303	771102
303	771104
303	771106
303	771108
303	771110
303	771112
303	771115
303	771117
303	771119
304	771121
303	771123
304	771125
304	771127
304	771129
304	771131
304	771133
304	771135
304	771137
304	771139
304	771141
304	771143
304	771145
304	771147
304	771149
304	771151
304	771153
304	771155
304	771158
304	771160
304	771162
304	771164
304	771166
304	771168
304	771170
304	771172
305	771174
304	771176
305	771178
304	771180
305	771182
305	771184
305	771186
305	771188
305	771190
305	771192
305	771194
305	771196
305	771198
305	771200
305	771202
305	771204
305	771206
305	771208
305	771210
305	771212
305	771214
305	771216
305	771218
305	771220
305	771222
305	771224
305	771226
305	771228
306	771230
306	771232
306	771234
306	771236
306	771238
306	771240
306	771243
306	771245
306	771247
306	771249
306	771251
306	771253
306	771255
306	771257
306	771259
306	771261
306	771263
306	771265
306	771267
306	771269
306	771271
306	771273
306	771275
306	771277
306	771279
306	771281
306	771283
306	771286
306	771288
306	771290
306	771292
306	771294
306	771296
306	771298
306	771300
306	771302
306	771304
306	771306
306	771308
306	771310
306	771312
306	771314
306	771316
306	771318
307	771320
307	771322
308	771324
309	771326
310	771328
311	771330
311	771332
312	771334
313	771336
313	771338
314	771340
314	771342
315	771344
315	771346
315	771348
316	771350
316	771352
316	771354
316	771356
316	771358
316	771360
316	771362
316	771364
316	771366
316	771368
315	771371
315	771373
315	771375
314	771377
313	771379
313	771381
312	771383
312	771385
312	771387
311	771389
311	771391
310	771393
310	771395
309	771397
309	771399
308	771401
308	771403
308	771405
307	771407
307	771409
307	771411
306	771414
306	771416
305	771418
305	771420
305	771422
305	771424
305	771426
304	771428
304	771430
304	771432
303	771434
303	771436
303	771438
303	771440
302	771442
303	771444
302	771446
302	771448
302	771450
302	771452
302	771454
302	771456
302	771458
302	771460
303	771462
303	771464
304	771466
305	771468
307	771470
309	771472
313	771474
318	771476
324	771478
331	771480
340	771482
349	771484
359	771486
370	771488
381	771490
392	771492
403	771494
414	771496
422	771499
430	771501
437	771503
442	771505
446	771507
448	771509
449	771511
448	771513
446	771515
441	771517
435	771519
428	771521
421	771523
413	771525
406	771527
398	771529
392	771531
386	771533
380	771535
374	771537
369	771539
363	771542
358	771544
353	771546
348	771548
343	771550
339	771552
334	771554
330	771556
326	771558
322	771560
318	771562
315	771564
311	771566
308	771568
305	771570
302	771572
299	771574
297	771576
294	771578
292	771580
289	771582
288	771584
286	771586
284	771588
283	771590
281	771592
279	771594
277	771596
276	771598
275	771600
273	771602
272	771604
272	771606
270	771608
269	771610
268	771612
268	771614
267	771616
266	771618
266	771620
266	771622
265	771624
265	771627
265	771629
264	771631
264	771633
264	771635
264	771637
264	771639
264	771641
265	771643
264	771645
265	771647
265	771649
265	771651
266	771653
266	771655
266	771657
267	771659
267	771661
267	771663
268	771665
269	771667
269	771670
270	771672
271	771674
271	771676
272	771678
273	771680
274	771682
274	771684
275	771686
276	771688
277	771690
278	771692
280	771694
281	771696
282	771698
283	771700
285	771702
286	771704
287	771706
289	771708
290	771710
291	771712
293	771714
294	771716
296	771718
297	771720
299	771722
301	771724
302	771726
304	771728
305	771730
307	771732
309	771734
310	771736
312	771738
313	771740
314	771742
316	771744
317	771746
318	771748
319	771750
321	771752
322	771755
323	771757
324	771759
324	771761
325	771763
325	771765
325	771767
326	771769
326	771771
326	771773
325	771775
325	771777
324	771779
324	771781
323	771783
323	771785
321	771787
320	771789
319	771791
318	771793
316	771795
315	771798
314	771800
313	771802
311	771804
310	771806
308	771808
307	771810
305	771812
304	771814
303	771816
301	771818
300	771820
299	771822
298	771824
297	771826
295	771828
294	771830
293	771832
292	771834
291	771836
291	771838
290	771840
289	771842
289	771844
288	771846
287	771848
287	771850
286	771852
285	771854
285	771856
285	771858
284	771860
284	771862
283	771864
283	771866
283	771868
282	771870
282	771872
282	771874
282	771876
282	771878
282	771880
282	771883
281	771885
281	771887
282	771889
282	771891
282	771893
282	771895
282	771897
282	771899
282	771901
282	771903
282	771905
282	771907
283	771909
283	771911
283	771913
283	771915
283	771917
283	771919
284	771921
284	771923
284	771926
284	771928
284	771930
284	771932
285	771934
285	771936
285	771938
285	771940
286	771942
286	771944
286	771946
286	771948
286	771950
287	771952
287	771954
287	771956
287	771958
287	771960
288	771962
288	771964
288	771966
288	771968
288	771970
288	771972
289	771974
289	771976
289	771978
289	771980
289	771982
290	771984
290	771986
290	771988
290	771990
290	771992
290	771994
290	771996
290	771998
290	772000
290	772002
290	772004
290	772006
291	772008
291	772011
291	772013
291	772015
291	772017
291	772019
291	772021
291	772023
291	772025
291	772027
291	772029
291	772031
291	772033
291	772035
291	772037
291	772039
291	772041
292	772043
292	772045
292	772047
291	772049
292	772051
292	772054
292	772056
292	772058
292	772060
292	772062
292	772064
292	772066
292	772068
293	772070
293	772072
293	772074
293	772076
293	772078
293	772080
293	772082
293	772084
293	772086
293	772088
294	772090
294	772092
294	772094
294	772096
294	772098
294	772100
294	772102
294	772104
295	772106
295	772108
295	772110
295	772112
295	772114
295	772116
295	772118
295	772120
295	772122
296	772124
296	772126
296	772128
296	772130
296	772132
296	772134
296	772136
296	772139
296	772141
296	772143
297	772145
297	772147
297	772149
297	772151
297	772153
297	772155
297	772157
297	772159
297	772161
298	772163
298	772165
298	772167
298	772169
298	772171
298	772173
298	772175
298	772177
299	772179
299	772182
299	772184
299	772186
299	772188
299	772190
299	772192
299	772194
299	772196
300	772198
299	772200
299	772202
299	772204
300	772206
300	772208
300	772210
300	772212
300	772214
300	772216
300	772218
300	772220
300	772222
300	772224
300	772226
300	772228
300	772230
300	772232
300	772234
301	772236
301	772238
301	772240
301	772242
301	772244
301	772246
301	772248
301	772250
301	772252
301	772254
301	772256
301	772258
301	772260
301	772262
301	772264
301	772267
301	772269
301	772271
301	772273
302	772275
302	772277
302	772279
302	772281
302	772283
302	772285
302	772287
302	772289
302	772291
302	772293
302	772295
302	772297
302	772299
302	772301
302	772303
302	772305
302	772307
302	772310
302	772312
303	772314
303	772316
302	772318
303	772320
303	772322
303	772324
303	772326
303	772328
303	772330
303	772332
303	772334
303	772336
303	772338
303	772340
303	772342
303	772344
303	772346
303	772348
303	772350
303	772352
303	772354
303	772356
303	772358
303	772360
303	772362
303	772364
303	772366
304	772368
303	772370
303	772372
303	772374
303	772376
304	772378
303	772380
303	772382
303	772384
303	772386
303	772388
303	772390
303	772392
304	772395
303	772397
303	772399
303	772401
303	772403
303	772405
303	772407
303	772409
303	772411
303	772413
303	772415
303	772417
303	772419
303	772421
304	772423
303	772425
303	772427
303	772429
303	772431
303	772433
303	772435
303	772438
303	772440
303	772442
303	772444
303	772446
303	772448
303	772450
303	772452
303	772454
303	772456
303	772458
303	772460
303	772462
303	772464
303	772466
303	772468
303	772470
303	772472
303	772474
303	772476
303	772478
303	772480
303	772482
303	772484
303	772486
303	772488
303	772490
303	772492
303	772494
303	772496
303	772498
303	772500
303	772502
303	772504
303	772506
303	772508
303	772510
303	772512
303	772514
303	772516
303	772518
303	772520
303	772523
303	772525
303	772527
303	772529
303	772531
303	772533
303	772535
303	772537
303	772539
303	772541
303	772543
303	772545
303	772547
303	772549
303	772551
303	772553
303	772555
303	772557
303	772559
303	772561
303	772563
303	772566
303	772568
303	772570
303	772572
303	772574
303	772576
303	772578
303	772580
303	772582
303	772584
303	772586
303	772588
303	772590
303	772592
303	772594
303	772596
303	772598
303	772600
303	772602
303	772604
303	772606
303	772608
303	772610
303	772612
303	772614
302	772616
303	772618
302	772620
302	772622
302	772624
302	772626
302	772628
302	772630
302	772632
303	772634
303	772636
304	772638
305	772640
306	772642
307	772644
307	772646
308	772648
309	772651
309	772653
310	772655
311	772657
311	772659
312	772661
312	772663
312	772665
313	772667
313	772669
313	772671
314	772673
314	772675
314	772677
314	772679
314	772681
314	772683
314	772685
313	772687
313	772689
312	772691
312	772694
311	772696
311	772698
310	772700
310	772702
309	772704
309	772706
308	772708
308	772710
307	772712
307	772714
307	772716
306	772718
306	772720
305	772722
305	772724
304	772726
304	772728
303	772730
303	772732
303	772734
303	772736
303	772738
302	772740
302	772742
302	772744
301	772746
301	772748
301	772750
300	772752
300	772754
300	772756
300	772758
299	772760
299	772762
299	772764
299	772766
299	772768
299	772770
299	772772
299	772774
299	772776
299	772779
300	772781
300	772783
300	772785
302	772787
304	772789
306	772791
310	772793
315	772795
322	772797
329	772799
338	772801
347	772803
358	772805
369	772807
381	772809
392	772811
404	772813
414	772815
424	772817
432	772819
439	772822
445	772824
449	772826
452	772828
453	772830
452	772832
450	772834
444	772836
438	772838
431	772840
424	772842
416	772844
408	772846
401	772848
394	772850
388	772852
381	772854
376	772856
370	772858
364	772860
359	772862
356	772864
351	772866
346	772868
341	772870
337	772872
332	772874
328	772876
324	772878
320	772880
317	772882
313	772884
310	772886
306	772888
303	772890
300	772892
297	772894
295	772896
292	772898
290	772900
287	772902
285	772904
283	772907
281	772909
279	772911
277	772913
276	772915
275	772917
274	772919
273	772921
273	772923
272	772925
272	772927
272	772929
271	772931
270	772933
270	772935
269	772937
269	772939
269	772941
269	772943
269	772945
269	772947
269	772950
269	772952
269	772954
268	772956
268	772958
267	772960
267	772962
267	772964
267	772966
268	772968
269	772970
270	772972
271	772974
271	772976
272	772978
273	772980
272	772982
273	772984
272	772986
273	772988
273	772990
273	772992
273	772994
273	772996
274	772998
274	773000
274	773002
275	773004
275	773006
276	773008
277	773010
278	773012
279	773014
280	773016
281	773018
282	773020
284	773022
285	773024
286	773026
287	773028
288	773030
290	773032
291	773035
292	773037
294	773039
296	773041
297	773043
298	773045
300	773047
302	773049
303	773051
305	773053
307	773055
308	773057
310	773059
311	773061
312	773063
314	773065
315	773067
316	773069
317	773071
318	773073
319	773075
320	773078
321	773080
322	773082
322	773084
323	773086
323	773088
323	773090
323	773092
324	773094
323	773096
323	773098
322	773100
322	773102
321	773104
320	773106
319	773108
318	773110
318	773112
316	773114
315	773116
314	773118
313	773120
312	773122
311	773124
311	773126
310	773128
309	773130
309	773132
308	773134
307	773136
306	773138
305	773140
304	773142
303	773144
302	773146
300	773148
299	773150
298	773152
297	773154
295	773156
294	773158
293	773160
292	773163
291	773165
290	773167
289	773169
288	773171
287	773173
287	773175
286	773177
286	773179
285	773181
285	773183
285	773185
284	773187
284	773189
283	773191
284	773193
283	773195
283	773197
283	773199
283	773201
282	773203
282	773206
282	773208
282	773210
282	773212
282	773214
282	773216
282	773218
282	773220
282	773222
282	773224
283	773226
283	773228
283	773230
283	773232
283	773234
283	773236
284	773238
283	773240
284	773242
284	773244
284	773246
284	773248
284	773250
284	773252
284	773254
285	773256
285	773258
285	773260
285	773262
285	773264
285	773266
286	773268
286	773270
286	773272
286	773274
286	773276
286	773278
287	773280
287	773282
287	773284
287	773286
287	773288
288	773291
288	773293
288	773295
288	773297
288	773299
288	773301
288	773303
288	773305
288	773307
288	773309
288	773311
288	773313
289	773315
289	773317
289	773319
289	773321
289	773323
290	773325
290	773327
290	773329
290	773331
290	773334
291	773336
291	773338
291	773340
291	773342
291	773344
291	773346
291	773348
291	773350
291	773352
291	773354
291	773356
292	773358
292	773360
292	773362
292	773364
292	773366
293	773368
292	773370
293	773372
293	773374
293	773376
293	773378
293	773380
293	773382
293	773384
294	773386
294	773388
294	773390
294	773392
294	773394
294	773396
294	773398
294	773400
294	773402
294	773404
295	773406
294	773408
294	773410
295	773412
295	773414
295	773416
295	773419
295	773421
295	773423
295	773425
295	773427
295	773429
295	773431
295	773433
295	773435
295	773437
296	773439
296	773441
296	773443
296	773445
296	773447
296	773449
296	773451
296	773453
296	773455
296	773457
296	773459
296	773462
296	773464
297	773466
296	773468
297	773470
296	773472
297	773474
297	773476
297	773478
297	773480
297	773482
297	773484
297	773486
297	773488
297	773490
297	773492
297	773494
297	773496
297	773498
298	773500
298	773502
298	773504
298	773506
298	773508
298	773510
297	773512
298	773514
298	773516
298	773518
298	773520
298	773522
298	773524
298	773526
298	773528
298	773530
298	773532
298	773534
298	773536
298	773538
298	773540
298	773542
298	773544
299	773547
298	773549
298	773551
299	773553
298	773555
298	773557
298	773559
298	773561
298	773563
298	773565
298	773567
298	773569
299	773571
298	773573
299	773575
299	773577
299	773579
299	773581
299	773583
299	773585
299	773587
299	773590
299	773592
299	773594
299	773596
299	773598
299	773600
299	773602
299	773604
299	773606
299	773608
299	773610
299	773612
299	773614
299	773616
299	773618
299	773620
299	773622
299	773624
299	773626
299	773628
299	773630
299	773632
299	773634
299	773636
299	773638
299	773640
299	773642
299	773644
299	773646
299	773648
299	773650
299	773652
299	773654
299	773656
299	773658
299	773660
299	773662
299	773664
299	773666
299	773668
299	773670
299	773672
299	773675
299	773677
299	773679
299	773681
299	773683
299	773685
299	773687
299	773689
299	773691
299	773693
299	773695
299	773697
299	773699
299	773701
299	773703
299	773705
298	773707
299	773709
299	773711
299	773713
299	773715
300	773718
301	773720
301	773722
303	773724
303	773726
304	773728
305	773730
306	773732
306	773734
307	773736
307	773738
308	773740
309	773742
309	773744
309	773746
310	773748
310	773750
310	773752
310	773754
310	773756
310	773758
310	773760
310	773762
310	773764
310	773766
309	773768
309	773770
309	773772
308	773774
308	773776
307	773778
307	773780
306	773782
306	773784
305	773786
305	773788
304	773790
304	773792
303	773794
302	773796
302	773798
301	773800
301	773803
301	773805
300	773807
300	773809
299	773811
299	773813
299	773815
298	773817
298	773819
298	773821
297	773823
297	773825
296	773827
296	773829
296	773831
296	773833
295	773835
295	773837
295	773839
294	773841
294	773843
294	773846
294	773848
294	773850
294	773852
294	773854
294	773856
294	773858
294	773860
295	773862
296	773864
298	773866
301	773868
305	773870
310	773872
316	773874
324	773876
333	773878
343	773880
354	773882
365	773884
377	773886
383	773888
395	773890
407	773892
418	773894
427	773896
435	773898
442	773900
447	773902
451	773904
453	773906
453	773908
451	773910
447	773912
440	773914
433	773916
425	773918
416	773920
408	773922
400	773924
392	773926
385	773928
378	773931
371	773933
365	773935
359	773937
353	773939
347	773941
342	773943
336	773945
331	773947
326	773949
321	773951
316	773953
312	773955
308	773957
304	773959
300	773961
296	773963
292	773965
289	773967
285	773969
282	773971
279	773974
276	773976
274	773978
271	773980
269	773982
266	773984
265	773986
262	773988
261	773990
259	773992
257	773994
256	773996
254	773998
253	774000
251	774002
250	774004
249	774006
248	774008
247	774010
246	774012
245	774014
245	774016
244	774018
243	774020
243	774022
243	774024
243	774026
242	774028
242	774030
242	774032
242	774034
242	774036
243	774038
242	774040
242	774042
242	774044
242	774046
241	774048
242	774050
242	774052
243	774054
243	774056
243	774059
244	774061
245	774063
245	774065
246	774067
247	774069
248	774071
248	774073
249	774075
249	774077
250	774079
250	774081
251	774083
252	774085
253	774087
254	774089
255	774091
256	774093
257	774095
258	774097
260	774099
261	774102
262	774104
264	774106
266	774108
267	774110
269	774112
270	774114
272	774116
273	774118
275	774120
276	774122
278	774124
279	774126
281	774128
283	774130
284	774132
285	774134
287	774136
288	774138
289	774140
290	774142
291	774144
292	774146
293	774148
294	774150
295	774152
296	774154
297	774156
298	774158
299	774160
299	774162
299	774164
299	774166
299	774168
299	774170
299	774172
299	774174
298	774176
298	774178
298	774180
297	774182
296	774184
295	774187
294	774189
293	774191
292	774193
290	774195
289	774197
288	774199
287	774201
286	774203
286	774205
284	774207
283	774209
281	774211
281	774213
280	774215
278	774217
277	774219
276	774221
275	774223
274	774225
274	774227
273	774230
272	774232
271	774234
270	774236
269	774238
269	774240
269	774242
268	774244
267	774246
267	774248
267	774250
266	774252
266	774254
266	774256
265	774258
265	774260
264	774262
264	774264
264	774266
263	774268
263	774270
263	774272
263	774274
263	774276
263	774278
263	774280
263	774282
263	774284
263	774286
263	774288
263	774290
263	774292
262	774294
263	774296
263	774298
263	774300
263	774302
263	774304
263	774306
263	774308
264	774310
263	774312
264	774315
264	774317
264	774319
265	774321
265	774323
266	774325
266	774327
266	774329
266	774331
266	774333
266	774335
266	774337
266	774339
266	774341
267	774343
267	774345
268	774347
268	774349
268	774351
269	774353
269	774355
269	774358
269	774360
270	774362
270	774364
270	774366
270	774368
271	774370
270	774372
271	774374
271	774376
271	774378
271	774380
271	774382
271	774384
271	774386
271	774388
272	774390
272	774392
272	774394
272	774396
273	774398
273	774400
273	774402
273	774404
273	774406
273	774408
273	774410
274	774412
274	774414
274	774416
275	774418
274	774420
275	774422
275	774424
275	774426
275	774428
275	774430
275	774432
275	774434
275	774436
275	774438
275	774440
275	774443
275	774445
275	774447
275	774449
276	774451
276	774453
276	774455
277	774457
277	774459
277	774461
277	774463
277	774465
277	774467
277	774469
278	774471
278	774473
278	774475
278	774477
278	774479
278	774481
278	774483
277	774486
277	774488
277	774490
277	774492
278	774494
278	774496
278	774498
278	774500
278	774502
278	774504
278	774506
278	774508
279	774510
279	774512
279	774514
279	774516
279	774518
279	774520
279	774522
279	774524
280	774526
279	774528
279	774530
279	774532
279	774534
279	774536
279	774538
280	774540
280	774542
280	774544
280	774546
280	774548
280	774550
280	774552
280	774554
280	774556
281	774558
281	774560
281	774562
281	774564
281	774566
281	774568
281	774571
281	774573
282	774575
282	774577
282	774579
282	774581
282	774583
283	774585
283	774587
282	774589
282	774591
282	774593
283	774595
283	774597
283	774599
283	774601
283	774603
284	774605
285	774607
285	774609
287	774611
287	774614
288	774616
289	774618
290	774620
291	774622
291	774624
292	774626
293	774628
293	774630
293	774632
294	774634
294	774636
294	774638
295	774640
295	774642
295	774644
295	774646
295	774648
295	774650
295	774652
295	774654
295	774656
295	774658
294	774660
293	774662
293	774664
293	774666
292	774668
292	774670
292	774672
291	774674
291	774676
291	774678
290	774680
290	774682
289	774684
288	774686
288	774688
288	774690
288	774692
287	774694
287	774696
287	774699
287	774701
287	774703
286	774705
286	774707
286	774709
286	774711
286	774713
286	774715
285	774717
285	774719
285	774721
285	774723
285	774725
285	774727
285	774729
285	774731
285	774733
286	774735
286	774737
286	774739
286	774742
286	774744
287	774746
287	774748
288	774750
289	774752
291	774754
294	774756
298	774758
303	774760
310	774762
317	774764
326	774766
336	774768
347	774770
358	774772
370	774774
382	774776
393	774778
403	774780
413	774782
417	774784
424	774786
430	774788
435	774790
437	774792
439	774794
439	774796
437	774798
433	774800
427	774802
421	774804
414	774806
407	774808
400	774810
393	774812
387	774814
381	774816
375	774818
369	774820
363	774822
358	774824
352	774827
347	774829
342	774831
337	774833
332	774835
328	774837
324	774839
319	774841
315	774843
312	774845
308	774847
304	774849
301	774851
298	774853
294	774855
291	774857
289	774859
286	774861
284	774863
281	774865
279	774867
277	774870
275	774872
273	774874
271	774876
270	774878
268	774880
267	774882
266	774884
265	774886
264	774888
263	774890
262	774892
261	774894
260	774896
259	774898
259	774900
258	774902
257	774904
257	774906
257	774908
257	774910
257	774912
257	774914
257	774916
256	774918
257	774920
257	774922
257	774924
257	774926
257	774928
257	774930
257	774932
258	774934
258	774936
258	774938
258	774940
259	774942
259	774944
260	774946
260	774948
261	774950
262	774952
263	774955
264	774957
264	774959
265	774961
266	774963
267	774965
268	774967
269	774969
270	774971
270	774973
272	774975
273	774977
274	774979
275	774981
277	774983
278	774985
279	774987
281	774989
282	774991
284	774993
285	774995
287	774998
288	775000
290	775002
292	775004
294	775006
295	775008
297	775010
299	775012
300	775014
302	775016
304	775018
305	775020
307	775022
308	775024
310	775026
311	775028
313	775030
314	775032
316	775034
317	775036
318	775038
318	775040
319	775042
320	775044
321	775046
321	775048
322	775050
322	775052
322	775054
322	775056
322	775058
322	775060
321	775062
320	775064
320	775066
319	775068
318	775070
317	775072
316	775074
315	775076
314	775078
313	775080
312	775083
311	775085
310	775087
309	775089
308	775091
307	775093
306	775095
305	775097
304	775099
303	775101
302	775103
301	775105
300	775107
299	775109
298	775111
298	775113
297	775115
296	775117
296	775119
295	775121
295	775123
294	775126
294	775128
293	775130
293	775132
292	775134
292	775136
292	775138
292	775140
291	775142
291	775144
291	775146
291	775148
291	775150
291	775152
290	775154
290	775156
290	775158
290	775160
291	775162
290	775164
290	775166
291	775168
291	775170
291	775172
291	775174
291	775176
291	775178
291	775180
291	775182
292	775184
292	775186
292	775188
292	775190
292	775192
292	775194
293	775196
293	775198
293	775200
293	775202
294	775204
294	775206
294	775208
294	775211
294	775213
294	775215
295	775217
295	775219
295	775221
296	775223
296	775225
296	775227
296	775229
296	775231
297	775233
297	775235
297	775237
297	775239
298	775241
298	775243
298	775245
298	775247
298	775249
299	775251
299	775254
299	775256
299	775258
299	775260
300	775262
300	775264
300	775266
300	775268
300	775270
300	775272
300	775274
300	775276
301	775278
301	775280
301	775282
301	775284
301	775286
301	775288
301	775290
301	775292
301	775294
301	775296
301	775298
302	775300
302	775302
302	775304
302	775306
303	775308
303	775310
303	775312
303	775314
303	775316
303	775318
303	775320
303	775322
303	775324
303	775326
304	775328
304	775330
304	775332
304	775334
304	775336
304	775339
304	775341
304	775343
305	775345
305	775347
304	775349
304	775351
304	775353
305	775355
305	775357
304	775359
305	775361
305	775363
305	775365
305	775367
306	775369
306	775371
306	775373
306	775375
306	775377
306	775379
306	775382
306	775384
306	775386
307	775388
307	775390
307	775392
307	775394
307	775396
307	775398
307	775400
307	775402
308	775404
308	775406
308	775408
308	775410
308	775412
308	775414
308	775416
308	775418
308	775420
308	775422
308	775424
308	775426
308	775428
308	775430
308	775432
308	775434
308	775436
308	775438
308	775440
308	775442
309	775444
309	775446
308	775448
309	775450
309	775452
309	775454
309	775456
310	775458
310	775460
309	775462
310	775464
310	775467
310	775469
310	775471
310	775473
310	775475
310	775477
310	775479
310	775481
311	775483
311	775485
311	775487
312	775489
312	775491
313	775493
313	775495
313	775497
313	775499
313	775501
313	775503
313	775505
313	775507
313	775510
313	775512
313	775514
312	775516
312	775518
312	775520
312	775522
312	775524
312	775526
312	775528
312	775530
313	775532
313	775534
314	775536
315	775538
316	775540
317	775542
318	775544
318	775546
319	775548
319	775550
319	775552
319	775554
320	775556
320	775558
320	775560
321	775562
322	775564
322	775566
322	775568
322	775570
323	775572
322	775574
322	775576
322	775578
323	775580
322	775582
322	775584
322	775586
321	775588
321	775590
320	775592
320	775595
320	775597
319	775599
319	775601
319	775603
318	775605
318	775607
317	775609
317	775611
317	775613
316	775615
315	775617
315	775619
314	775621
314	775623
314	775625
313	775627
313	775629
313	775631
313	775633
313	775635
312	775638
312	775640
312	775642
311	775644
311	775646
311	775648
311	775650
311	775652
310	775654
310	775656
310	775658
310	775660
310	775662
310	775664
310	775666
310	775668
310	775670
311	775672
312	775674
313	775676
314	775678
315	775680
318	775682
322	775684
327	775686
334	775688
342	775690
351	775692
361	775694
372	775696
384	775698
396	775700
408	775702
420	775704
431	775706
441	775708
450	775710
457	775712
463	775714
467	775716
469	775718
469	775720
468	775723
465	775725
460	775727
453	775729
446	775731
437	775733
429	775735
421	775737
413	775739
406	775741
399	775743
393	775745
387	775747
381	775749
375	775751
369	775753
364	775755
359	775757
353	775759
349	775761
344	775763
339	775766
335	775768
330	775770
326	775772
322	775774
318	775776
315	775778
311	775780
308	775782
305	775784
302	775786
299	775788
297	775790
294	775792
292	775794
290	775796
288	775798
286	775800
284	775802
282	775804
280	775806
279	775808
278	775810
277	775812
275	775814
274	775816
273	775818
272	775820
271	775822
271	775824
270	775826
269	775828
268	775830
268	775832
267	775834
267	775836
267	775838
267	775840
266	775842
266	775844
266	775846
266	775848
267	775851
266	775853
266	775855
267	775857
267	775859
267	775861
268	775863
268	775865
268	775867
268	775869
269	775871
269	775873
269	775875
270	775877
270	775879
271	775881
272	775883
272	775885
273	775887
273	775889
274	775891
274	775894
275	775896
276	775898
277	775900
278	775902
279	775904
280	775906
281	775908
283	775910
284	775912
285	775914
286	775916
288	775918
289	775920
290	775922
292	775924
294	775926
295	775928
297	775930
298	775932
299	775934
300	775936
302	775938
303	775940
305	775942
306	775944
308	775946
309	775948
311	775950
312	775952
313	775954
315	775956
316	775958
317	775960
318	775962
319	775964
320	775966
321	775968
321	775970
322	775972
322	775974
323	775976
323	775979
323	775981
323	775983
322	775985
322	775987
322	775989
321	775991
321	775993
320	775995
319	775997
318	775999
318	776001
316	776003
315	776005
314	776007
314	776009
312	776011
311	776013
310	776015
309	776017
308	776019
307	776022
306	776024
305	776026
304	776028
303	776030
302	776032
301	776034
300	776036
299	776038
299	776040
298	776042
297	776044
296	776046
296	776048
295	776050
295	776052
294	776054
294	776056
293	776058
293	776060
292	776062
292	776064
292	776066
291	776068
291	776070
291	776072
291	776074
290	776076
290	776078
290	776080
290	776082
290	776084
290	776086
289	776088
289	776090
289	776092
289	776094
289	776096
289	776098
289	776100
289	776102
289	776104
289	776107
289	776109
290	776111
290	776113
290	776115
290	776117
290	776119
290	776121
290	776123
290	776125
291	776127
291	776129
291	776131
291	776133
292	776135
292	776137
292	776139
292	776141
292	776143
293	776145
293	776147
293	776150
293	776152
293	776154
293	776156
294	776158
294	776160
294	776162
294	776164
294	776166
295	776168
295	776170
295	776172
295	776174
295	776176
296	776178
296	776180
296	776182
296	776184
296	776186
296	776188
296	776190
296	776192
296	776194
297	776196
297	776198
297	776200
297	776202
297	776204
297	776206
298	776208
298	776210
298	776212
298	776214
298	776216
299	776218
298	776220
299	776222
299	776224
299	776226
299	776228
299	776230
299	776232
299	776235
299	776237
299	776239
299	776241
299	776243
299	776245
299	776247
299	776249
300	776251
300	776253
300	776255
300	776257
300	776259
300	776261
300	776263
300	776265
300	776267
301	776269
301	776271
301	776273
301	776275
301	776278
301	776280
301	776282
302	776284
302	776286
302	776288
302	776290
302	776292
302	776294
302	776296
302	776298
303	776300
303	776302
303	776304
303	776306
303	776308
303	776310
303	776312
303	776314
303	776316
304	776318
303	776320
304	776322
304	776324
304	776326
304	776328
304	776330
305	776332
305	776334
305	776336
305	776338
305	776340
305	776342
305	776344
305	776346
305	776348
305	776350
306	776352
306	776354
306	776356
306	776358
306	776360
307	776363
307	776365
307	776367
307	776369
307	776371
307	776373
307	776375
307	776377
308	776379
308	776381
308	776383
308	776385
308	776387
308	776389
308	776391
308	776393
308	776395
308	776397
308	776399
308	776401
308	776403
308	776406
308	776408
308	776410
308	776412
308	776414
308	776416
308	776418
309	776420
309	776422
310	776424
311	776426
311	776428
312	776430
313	776432
314	776434
315	776436
316	776438
316	776440
317	776442
318	776444
318	776446
319	776448
319	776450
320	776452
320	776454
320	776456
320	776458
321	776460
321	776462
321	776464
321	776466
321	776468
321	776470
320	776472
320	776474
320	776476
319	776478
319	776480
318	776482
317	776484
317	776486
316	776488
316	776491
315	776493
315	776495
314	776497
314	776499
313	776501
313	776503
312	776505
312	776507
311	776509
311	776511
310	776513
310	776515
310	776517
309	776519
309	776521
309	776523
308	776525
308	776527
307	776529
307	776531
307	776534
307	776536
306	776538
306	776540
306	776542
306	776544
306	776546
306	776548
305	776550
305	776552
306	776554
306	776556
306	776558
306	776560
307	776562
308	776564
309	776566
310	776568
312	776570
315	776572
319	776574
322	776576
328	776578
335	776580
343	776582
353	776584
363	776586
374	776588
386	776590
399	776592
411	776594
423	776596
433	776598
443	776600
451	776602
458	776604
463	776606
467	776608
469	776610
468	776612
466	776614
461	776616
454	776619
447	776621
439	776623
430	776625
422	776627
414	776629
406	776631
399	776633
392	776635
386	776637
380	776639
374	776641
368	776643
362	776645
357	776647
351	776649
346	776651
341	776653
336	776655
332	776657
328	776659
324	776662
320	776664
316	776666
312	776668
309	776670
305	776672
302	776674
299	776676
296	776678
294	776680
291	776682
289	776684
286	776686
284	776688
282	776690
280	776692
278	776694
276	776696
275	776698
273	776700
272	776702
271	776704
270	776706
269	776708
268	776710
267	776712
266	776714
266	776716
265	776718
265	776720
264	776722
263	776724
263	776726
263	776728
263	776730
263	776732
262	776734
262	776736
262	776738
262	776740
262	776742
262	776744
263	776747
263	776749
263	776751
263	776753
263	776755
264	776757
264	776759
264	776761
265	776763
265	776765
266	776767
266	776769
267	776771
268	776773
268	776775
269	776777
270	776779
270	776781
271	776783
272	776785
273	776787
274	776790
275	776792
276	776794
277	776796
278	776798
279	776800
281	776802
282	776804
283	776806
285	776808
286	776810
287	776812
289	776814
291	776816
292	776818
293	776820
295	776822
297	776824
298	776826
300	776828
302	776830
302	776832
304	776834
306	776836
307	776838
309	776840
310	776842
311	776844
313	776846
314	776848
315	776850
316	776852
317	776854
318	776856
319	776858
320	776860
320	776862
321	776864
321	776866
321	776868
322	776870
321	776872
321	776875
321	776877
320	776879
320	776881
319	776883
319	776885
318	776887
317	776889
316	776891
315	776893
314	776895
314	776897
313	776899
311	776901
310	776903
309	776905
308	776907
307	776909
306	776911
305	776913
304	776915
303	776918
303	776920
302	776922
301	776924
300	776926
299	776928
298	776930
298	776932
297	776934
297	776936
296	776938
295	776940
295	776942
295	776944
294	776946
294	776948
293	776950
293	776952
293	776954
292	776956
292	776958
292	776960
292	776962
292	776964
291	776966
291	776968
291	776970
291	776972
291	776974
291	776976
291	776978
291	776980
291	776982
291	776984
291	776986
291	776988
291	776990
291	776992
291	776994
291	776996
292	776998
292	777000
292	777003
292	777005
292	777007
292	777009
292	777011
292	777013
293	777015
293	777017
293	777019
293	777021
293	777023
293	777025
294	777027
294	777029
294	777031
294	777033
