309 13666
307	13668
306	13670
304	13672
303	13674
301	13676
299	13678
298	13680
297	13682
296	13684
295	13686
294	13688
293	13690
292	13692
291	13694
291	13696
290	13698
289	13700
288	13702
288	13704
287	13706
287	13708
287	13710
286	13712
286	13714
286	13716
285	13718
285	13720
285	13722
285	13724
285	13726
285	13728
285	13730
285	13732
285	13734
285	13736
285	13739
285	13741
285	13743
285	13745
286	13747
286	13749
286	13751
287	13753
287	13755
287	13757
287	13759
288	13761
288	13763
288	13765
289	13767
289	13769
290	13771
290	13773
291	13775
292	13777
292	13779
293	13782
294	13784
294	13786
295	13788
296	13790
297	13792
297	13794
298	13796
299	13798
300	13800
301	13802
302	13804
303	13806
304	13808
306	13810
307	13812
308	13814
309	13816
310	13818
311	13820
313	13822
313	13824
314	13826
315	13828
317	13830
318	13832
319	13834
320	13836
321	13838
321	13840
322	13842
323	13844
324	13846
325	13848
325	13850
326	13852
326	13854
327	13856
327	13858
328	13860
327	13862
327	13864
327	13867
327	13869
327	13871
326	13873
326	13875
325	13877
325	13879
324	13881
323	13883
322	13885
321	13887
320	13889
318	13891
317	13893
316	13895
315	13897
313	13899
312	13901
311	13903
309	13905
308	13907
306	13910
305	13912
304	13914
302	13916
301	13918
300	13920
298	13922
297	13924
296	13926
295	13928
294	13930
293	13932
292	13934
291	13936
290	13938
290	13940
289	13942
288	13944
287	13946
287	13948
286	13950
286	13952
286	13954
285	13956
285	13958
285	13960
284	13962
284	13964
283	13966
283	13968
283	13970
283	13972
283	13974
282	13976
283	13978
282	13980
283	13982
282	13984
282	13986
282	13988
282	13990
282	13992
282	13995
282	13997
282	13999
282	14001
282	14003
282	14005
283	14007
283	14009
283	14011
283	14013
283	14015
283	14017
283	14019
283	14021
283	14023
283	14025
283	14027
283	14029
283	14031
284	14033
284	14035
284	14038
284	14040
284	14042
284	14044
284	14046
284	14048
284	14050
285	14052
285	14054
285	14056
285	14058
285	14060
285	14062
285	14064
285	14066
286	14068
286	14070
286	14072
286	14074
286	14076
286	14078
286	14080
287	14082
287	14084
287	14086
287	14088
287	14090
287	14092
287	14094
288	14096
288	14098
288	14100
288	14102
288	14104
288	14106
288	14108
288	14110
289	14112
289	14114
289	14116
289	14118
289	14120
290	14123
290	14125
290	14127
291	14129
291	14131
292	14133
292	14135
293	14137
293	14139
293	14141
294	14143
294	14145
295	14147
295	14149
295	14151
295	14153
296	14155
296	14157
297	14159
297	14161
298	14163
299	14166
299	14168
299	14170
300	14172
300	14174
301	14176
301	14178
301	14180
301	14182
301	14184
302	14186
302	14188
302	14190
302	14192
302	14194
302	14196
302	14198
302	14200
302	14202
302	14204
301	14206
301	14208
301	14210
301	14212
301	14214
300	14216
300	14218
300	14220
300	14222
299	14224
299	14226
298	14228
298	14230
298	14232
298	14234
297	14236
297	14238
297	14240
297	14242
297	14244
297	14246
296	14248
296	14251
296	14253
296	14255
296	14257
296	14259
296	14261
296	14263
295	14265
295	14267
294	14269
294	14271
294	14273
293	14275
293	14277
293	14279
295	14281
297	14283
299	14285
303	14287
308	14289
315	14291
321	14294
329	14296
337	14298
346	14300
354	14302
361	14304
367	14306
371	14308
375	14310
377	14312
378	14314
377	14316
377	14318
376	14320
374	14322
372	14324
369	14326
366	14328
363	14330
359	14332
356	14334
354	14336
350	14338
347	14340
344	14342
341	14344
338	14346
335	14348
331	14350
329	14352
326	14354
323	14356
321	14358
318	14360
316	14362
313	14364
312	14366
309	14368
308	14370
306	14372
304	14374
302	14376
301	14379
299	14381
297	14383
296	14385
295	14387
294	14389
292	14391
292	14393
291	14395
289	14397
289	14399
288	14401
287	14403
287	14405
286	14407
285	14409
285	14411
284	14413
284	14415
284	14417
284	14419
283	14422
283	14424
283	14426
283	14428
283	14430
283	14432
283	14434
283	14436
283	14438
283	14440
283	14442
283	14444
283	14446
283	14448
283	14450
284	14452
284	14454
285	14456
285	14458
285	14460
285	14462
286	14464
286	14466
286	14468
287	14470
288	14472
288	14474
289	14476
289	14478
290	14480
291	14482
291	14484
292	14486
293	14488
293	14490
294	14492
295	14494
296	14496
297	14498
298	14500
299	14502
300	14504
301	14507
302	14509
304	14511
305	14513
306	14515
307	14517
308	14519
310	14521
311	14523
312	14525
313	14527
314	14529
316	14531
317	14533
318	14535
319	14537
320	14539
321	14541
322	14543
322	14545
323	14547
324	14550
324	14552
325	14554
325	14556
326	14558
326	14560
326	14562
327	14564
326	14566
326	14568
326	14570
326	14572
325	14574
325	14576
324	14578
323	14580
323	14582
322	14584
321	14586
319	14588
318	14590
318	14592
316	14594
315	14596
314	14598
313	14600
311	14602
310	14604
308	14606
307	14608
306	14610
304	14612
303	14614
302	14616
300	14618
299	14620
298	14622
296	14624
296	14626
294	14628
293	14630
292	14632
291	14635
291	14637
290	14639
289	14641
288	14643
288	14645
287	14647
286	14649
286	14651
285	14653
285	14655
284	14657
284	14659
284	14661
283	14663
283	14665
283	14667
283	14669
283	14671
282	14673
282	14675
282	14678
282	14680
282	14682
281	14684
281	14686
282	14688
282	14690
282	14692
281	14694
281	14696
281	14698
282	14700
282	14702
282	14704
282	14706
282	14708
282	14710
282	14712
282	14714
282	14716
282	14718
282	14720
282	14722
283	14724
282	14726
283	14728
283	14730
283	14732
283	14734
283	14736
283	14738
283	14740
283	14742
284	14744
284	14746
284	14748
284	14750
284	14752
284	14754
284	14756
284	14758
285	14760
285	14763
285	14765
285	14767
285	14769
285	14771
286	14773
286	14775
286	14777
286	14779
286	14781
286	14783
286	14785
286	14787
287	14789
287	14791
287	14793
287	14795
287	14797
288	14799
288	14801
288	14803
288	14806
288	14808
288	14810
289	14812
289	14814
289	14816
289	14818
290	14820
290	14822
291	14824
291	14826
291	14828
292	14830
292	14832
293	14834
293	14836
294	14838
294	14840
294	14842
295	14844
295	14846
295	14848
295	14850
296	14852
297	14854
297	14856
297	14858
298	14860
298	14862
299	14864
299	14866
300	14868
300	14870
301	14872
301	14874
301	14876
301	14878
302	14880
302	14882
302	14884
302	14886
302	14888
302	14891
302	14893
302	14895
302	14897
302	14899
301	14901
301	14903
301	14905
301	14907
301	14909
300	14911
300	14913
300	14915
299	14917
299	14919
299	14921
298	14923
298	14925
298	14927
297	14929
297	14931
297	14934
297	14936
297	14938
297	14940
297	14942
296	14944
296	14946
296	14948
296	14950
296	14952
296	14954
296	14956
295	14958
295	14960
295	14962
294	14964
294	14966
293	14968
293	14970
293	14972
294	14974
295	14976
297	14978
300	14980
304	14982
309	14984
315	14986
322	14988
330	14990
338	14992
347	14994
355	14996
362	14998
368	15000
373	15002
377	15004
379	15006
379	15008
379	15010
379	15012
378	15014
376	15016
374	15019
371	15021
368	15023
365	15025
361	15027
357	15029
354	15031
351	15033
347	15035
344	15037
341	15039
338	15041
334	15043
331	15045
329	15047
326	15049
323	15051
320	15053
318	15055
316	15057
313	15059
311	15062
309	15064
307	15066
305	15068
303	15070
301	15072
300	15074
298	15076
297	15078
296	15080
294	15082
293	15084
292	15086
291	15088
290	15090
289	15092
288	15094
288	15096
287	15098
286	15100
285	15102
285	15104
285	15106
284	15108
284	15110
283	15112
283	15114
283	15116
283	15118
282	15120
282	15122
282	15124
282	15126
282	15128
282	15130
282	15132
282	15134
282	15136
282	15138
282	15140
282	15142
283	15144
283	15147
283	15149
283	15151
284	15153
284	15155
285	15157
285	15159
285	15161
286	15163
286	15165
287	15167
287	15169
288	15171
289	15173
289	15175
290	15177
291	15179
291	15181
292	15183
293	15185
294	15187
295	15190
296	15192
297	15194
298	15196
299	15198
300	15200
301	15202
302	15204
303	15206
305	15208
306	15210
307	15212
308	15214
309	15216
311	15218
312	15220
313	15222
314	15224
315	15226
316	15228
317	15230
318	15232
319	15234
320	15236
321	15238
322	15240
322	15242
323	15244
324	15246
324	15248
325	15250
325	15252
325	15254
326	15256
326	15258
326	15260
326	15262
326	15264
326	15266
325	15268
325	15270
324	15272
323	15275
322	15277
321	15279
320	15281
319	15283
318	15285
317	15287
316	15289
314	15291
313	15293
312	15295
310	15297
309	15299
307	15301
306	15303
305	15305
303	15307
302	15309
301	15311
299	15313
298	15315
297	15318
296	15320
295	15322
294	15324
293	15326
292	15328
291	15330
290	15332
289	15334
289	15336
288	15338
287	15340
287	15342
286	15344
286	15346
285	15348
285	15350
285	15352
284	15354
284	15356
284	15358
283	15360
283	15362
283	15364
283	15366
283	15368
282	15370
282	15372
282	15374
282	15376
282	15378
282	15380
282	15382
282	15384
282	15386
282	15388
282	15390
282	15392
282	15394
282	15396
282	15398
282	15400
282	15403
282	15405
283	15407
283	15409
283	15411
283	15413
283	15415
283	15417
283	15419
283	15421
283	15423
283	15425
283	15427
283	15429
284	15431
284	15433
284	15435
284	15437
284	15439
284	15441
284	15443
284	15446
284	15448
284	15450
285	15452
285	15454
285	15456
285	15458
285	15460
285	15462
286	15464
285	15466
286	15468
286	15470
286	15472
286	15474
286	15476
287	15478
287	15480
287	15482
287	15484
287	15486
287	15488
287	15490
288	15492
288	15494
288	15496
288	15498
288	15500
288	15502
289	15504
289	15506
289	15508
289	15510
289	15512
290	15514
290	15516
290	15518
291	15520
291	15522
292	15524
292	15526
292	15528
293	15531
293	15533
294	15535
294	15537
295	15539
295	15541
295	15543
296	15545
296	15547
296	15549
297	15551
298	15553
298	15555
298	15557
299	15559
299	15561
300	15563
300	15565
301	15567
301	15569
301	15571
302	15574
302	15576
302	15578
302	15580
303	15582
303	15584
303	15586
303	15588
303	15590
303	15592
303	15594
302	15596
303	15598
302	15600
302	15602
302	15604
302	15606
301	15608
301	15610
301	15612
300	15614
300	15616
300	15618
299	15620
299	15622
299	15624
299	15626
298	15628
298	15630
298	15632
298	15634
298	15636
298	15638
297	15640
297	15642
297	15644
297	15646
297	15648
297	15650
297	15652
297	15654
296	15656
296	15659
296	15661
296	15663
295	15665
294	15667
294	15669
294	15671
294	15673
294	15675
296	15677
298	15679
302	15681
306	15683
311	15685
318	15687
326	15689
334	15691
342	15693
351	15695
358	15697
365	15699
370	15702
375	15704
378	15706
380	15708
380	15710
379	15712
379	15714
378	15716
376	15718
373	15720
371	15722
368	15724
364	15726
361	15728
357	15730
354	15732
350	15734
347	15736
344	15738
340	15740
337	15742
336	15744
332	15746
330	15748
327	15750
324	15752
322	15754
319	15756
317	15758
314	15760
312	15762
310	15764
308	15766
306	15768
304	15770
302	15772
301	15774
299	15776
298	15778
296	15780
295	15782
294	15784
293	15787
292	15789
291	15791
290	15793
289	15795
288	15797
287	15799
287	15801
286	15803
285	15805
285	15807
284	15809
284	15811
284	15813
283	15815
283	15817
283	15819
282	15821
282	15823
282	15825
282	15827
282	15830
282	15832
282	15834
282	15836
282	15838
282	15840
283	15842
283	15844
283	15846
283	15848
283	15850
284	15852
284	15854
285	15856
285	15858
285	15860
286	15862
286	15864
287	15866
287	15868
288	15870
288	15872
289	15874
289	15876
290	15878
291	15880
291	15882
292	15884
293	15886
294	15888
295	15890
296	15892
297	15894
298	15896
299	15898
300	15900
301	15902
302	15904
303	15906
305	15908
306	15910
307	15912
308	15915
309	15917
310	15919
312	15921
313	15923
314	15925
315	15927
316	15929
317	15931
318	15933
319	15935
320	15937
321	15939
322	15941
322	15943
323	15945
324	15947
324	15949
325	15951
325	15953
325	15955
325	15958
326	15960
326	15962
325	15964
325	15966
325	15968
325	15970
324	15972
323	15974
323	15976
322	15978
321	15980
320	15982
319	15984
318	15986
316	15988
315	15990
314	15992
313	15994
311	15996
310	15998
309	16000
308	16002
306	16004
305	16006
304	16008
302	16010
301	16012
300	16014
299	16016
297	16018
296	16020
295	16022
294	16024
294	16026
292	16028
292	16030
291	16032
290	16034
289	16036
289	16038
288	16040
287	16043
287	16045
286	16047
286	16049
285	16051
285	16053
285	16055
285	16057
284	16059
284	16061
284	16063
283	16065
283	16067
283	16069
283	16071
283	16073
282	16075
282	16077
283	16079
282	16081
282	16083
282	16086
283	16088
282	16090
283	16092
283	16094
283	16096
283	16098
283	16100
283	16102
283	16104
283	16106
283	16108
283	16110
283	16112
283	16114
283	16116
284	16118
284	16120
284	16122
284	16124
284	16126
284	16128
284	16130
284	16132
284	16134
284	16136
285	16138
285	16140
285	16142
285	16144
285	16146
285	16148
285	16150
285	16152
286	16154
286	16156
286	16158
286	16160
286	16162
286	16164
286	16166
287	16168
287	16171
287	16173
287	16175
287	16177
287	16179
287	16181
288	16183
288	16185
288	16187
288	16189
288	16191
288	16193
289	16195
289	16197
289	16199
289	16201
290	16203
290	16205
290	16207
290	16209
290	16211
290	16214
290	16216
291	16218
291	16220
291	16222
291	16224
291	16226
292	16228
292	16230
292	16232
292	16234
293	16236
293	16238
294	16240
294	16242
295	16244
295	16246
295	16248
296	16250
296	16252
297	16254
297	16256
297	16258
297	16260
298	16262
298	16264
299	16266
299	16268
300	16270
300	16272
301	16274
301	16276
302	16278
302	16280
302	16282
303	16284
303	16286
303	16288
303	16290
303	16292
304	16294
304	16296
304	16299
304	16301
304	16303
304	16305
304	16307
304	16309
304	16311
303	16313
303	16315
303	16317
303	16319
302	16321
302	16323
302	16325
302	16327
301	16329
301	16331
300	16333
300	16335
300	16337
300	16339
299	16342
299	16344
299	16346
299	16348
299	16350
298	16352
299	16354
298	16356
298	16358
298	16360
298	16362
298	16364
298	16366
297	16368
297	16370
297	16372
296	16374
296	16376
296	16378
295	16380
295	16382
294	16384
295	16386
296	16388
297	16390
300	16392
303	16394
308	16396
314	16398
320	16400
328	16402
336	16404
344	16406
353	16408
360	16410
367	16412
372	16414
376	16416
380	16418
381	16420
381	16422
380	16424
380	16427
378	16429
376	16431
374	16433
372	16435
368	16437
365	16439
361	16441
358	16443
354	16445
351	16447
347	16449
344	16451
341	16453
337	16455
334	16457
332	16459
329	16461
326	16463
323	16465
320	16467
318	16470
316	16472
313	16474
311	16476
309	16478
307	16480
305	16482
304	16484
302	16486
300	16488
299	16490
297	16492
296	16494
295	16496
293	16498
292	16500
292	16502
290	16504
289	16506
289	16508
288	16510
287	16512
287	16514
287	16516
286	16518
285	16520
285	16522
284	16524
284	16526
284	16528
283	16530
283	16532
283	16534
283	16536
283	16538
283	16540
283	16542
283	16544
283	16546
283	16548
283	16550
283	16552
283	16555
283	16557
284	16559
284	16561
284	16563
284	16565
285	16567
285	16569
286	16571
286	16573
286	16575
287	16577
287	16579
288	16581
288	16583
289	16585
289	16587
290	16589
291	16591
291	16593
292	16595
293	16598
294	16600
295	16602
296	16604
297	16606
298	16608
299	16610
300	16612
301	16614
302	16616
303	16618
305	16620
306	16622
307	16624
308	16626
309	16628
310	16630
312	16632
313	16634
314	16636
315	16638
316	16640
317	16642
318	16644
319	16646
320	16648
321	16650
321	16652
322	16654
323	16656
323	16658
324	16660
325	16662
325	16664
325	16666
326	16668
326	16670
326	16672
326	16674
326	16676
326	16678
326	16680
325	16683
324	16685
324	16687
323	16689
322	16691
321	16693
320	16695
319	16697
318	16699
317	16701
316	16703
315	16705
313	16707
312	16709
310	16711
309	16713
308	16715
307	16717
305	16719
304	16721
302	16723
301	16726
300	16728
299	16730
298	16732
297	16734
296	16736
295	16738
294	16740
293	16742
292	16744
291	16746
291	16748
290	16750
289	16752
289	16754
288	16756
288	16758
287	16760
287	16762
286	16764
286	16766
286	16768
285	16770
285	16772
285	16774
284	16776
284	16778
284	16780
284	16782
284	16784
284	16786
284	16788
284	16790
283	16792
284	16794
283	16796
283	16798
283	16800
283	16802
284	16804
284	16806
284	16808
284	16811
284	16813
284	16815
284	16817
284	16819
284	16821
284	16823
284	16825
284	16827
284	16829
284	16831
284	16833
284	16835
285	16837
285	16839
285	16841
285	16843
285	16845
285	16847
285	16849
285	16851
285	16854
285	16856
285	16858
286	16860
286	16862
286	16864
286	16866
286	16868
286	16870
286	16872
286	16874
287	16876
287	16878
287	16880
287	16882
287	16884
287	16886
287	16888
287	16890
287	16892
288	16894
288	16896
288	16898
288	16900
288	16902
288	16904
288	16906
288	16908
289	16910
289	16912
289	16914
289	16916
289	16918
290	16920
290	16922
290	16924
290	16926
291	16928
291	16930
291	16932
291	16934
291	16936
291	16939
291	16941
291	16943
292	16945
292	16947
292	16949
293	16951
293	16953
294	16955
294	16957
294	16959
295	16961
295	16963
296	16965
296	16967
296	16969
297	16971
297	16973
298	16975
298	16977
298	16979
299	16982
299	16984
300	16986
300	16988
301	16990
301	16992
302	16994
302	16996
302	16998
303	17000
303	17002
303	17004
303	17006
304	17008
304	17010
304	17012
304	17014
304	17016
304	17018
304	17020
304	17022
304	17024
304	17026
303	17028
304	17030
303	17032
303	17034
302	17036
302	17038
302	17040
302	17042
301	17044
301	17046
301	17048
300	17050
300	17052
300	17054
299	17056
299	17058
299	17060
298	17062
298	17064
298	17067
298	17069
298	17071
298	17073
298	17075
298	17077
297	17079
297	17081
297	17083
297	17085
297	17087
297	17089
296	17091
296	17093
295	17095
294	17097
294	17099
294	17101
295	17103
296	17105
299	17107
302	17110
307	17112
312	17114
319	17116
326	17118
335	17120
343	17122
352	17124
359	17126
366	17128
371	17130
375	17132
379	17134
380	17136
380	17138
379	17140
378	17142
377	17144
375	17146
372	17148
370	17150
368	17152
365	17154
361	17156
357	17158
354	17160
351	17162
347	17164
344	17166
341	17168
337	17170
335	17172
331	17174
329	17176
326	17178
323	17180
321	17182
318	17184
316	17186
313	17188
311	17190
309	17192
307	17195
305	17197
304	17199
302	17201
300	17203
299	17205
297	17207
296	17209
295	17211
293	17213
292	17215
291	17217
290	17219
289	17221
288	17223
287	17225
287	17227
286	17229
286	17231
285	17233
285	17235
284	17238
283	17240
283	17242
283	17244
283	17246
282	17248
282	17250
282	17252
282	17254
282	17256
282	17258
282	17260
282	17262
282	17264
282	17266
282	17268
282	17270
282	17272
283	17274
283	17276
283	17278
283	17280
284	17282
284	17284
284	17286
284	17288
285	17290
285	17292
286	17294
286	17296
287	17298
288	17300
288	17302
289	17304
290	17306
290	17308
291	17310
292	17312
292	17314
293	17316
294	17318
295	17320
296	17323
297	17325
298	17327
299	17329
300	17331
302	17333
303	17335
304	17337
305	17339
306	17341
308	17343
309	17345
310	17347
311	17349
312	17351
313	17353
314	17355
315	17357
317	17359
318	17361
319	17363
319	17366
320	17368
321	17370
322	17372
322	17374
323	17376
323	17378
324	17380
324	17382
325	17384
325	17386
325	17388
325	17390
325	17392
325	17394
324	17396
324	17398
323	17400
322	17402
322	17404
321	17406
320	17408
320	17410
319	17412
317	17414
316	17416
315	17418
314	17420
312	17422
311	17424
310	17426
308	17428
307	17430
305	17432
304	17434
303	17436
301	17438
300	17440
299	17442
298	17444
296	17446
295	17448
294	17451
293	17453
293	17455
292	17457
291	17459
290	17461
289	17463
288	17465
288	17467
287	17469
286	17471
286	17473
285	17475
285	17477
284	17479
284	17481
284	17483
283	17485
283	17487
282	17489
282	17491
282	17494
282	17496
282	17498
282	17500
282	17502
281	17504
281	17506
281	17508
281	17510
281	17512
281	17514
281	17516
281	17518
281	17520
281	17522
282	17524
281	17526
281	17528
281	17530
282	17532
282	17534
282	17536
282	17538
282	17540
282	17542
282	17544
282	17546
282	17548
282	17550
282	17552
283	17554
283	17556
283	17558
282	17560
283	17562
283	17564
283	17566
284	17568
283	17570
283	17572
284	17574
284	17576
284	17579
284	17581
284	17583
284	17585
284	17587
284	17589
284	17591
285	17593
285	17595
285	17597
285	17599
285	17601
285	17603
285	17605
285	17607
286	17609
286	17611
286	17613
286	17615
286	17617
286	17619
287	17622
287	17624
287	17626
287	17628
287	17630
288	17632
288	17634
288	17636
288	17638
288	17640
288	17642
288	17644
289	17646
289	17648
289	17650
289	17652
289	17654
290	17656
290	17658
291	17660
291	17662
291	17664
292	17666
292	17668
293	17670
293	17672
294	17674
294	17676
294	17678
295	17680
295	17682
295	17684
296	17686
296	17688
297	17690
297	17692
298	17694
298	17696
299	17698
299	17700
300	17702
300	17704
301	17707
301	17709
301	17711
301	17713
302	17715
302	17717
302	17719
302	17721
302	17723
302	17725
302	17727
302	17729
302	17731
302	17733
302	17735
301	17737
301	17739
301	17741
301	17743
300	17745
300	17747
300	17750
299	17752
299	17754
299	17756
298	17758
298	17760
298	17762
298	17764
298	17766
297	17768
297	17770
297	17772
297	17774
297	17776
296	17778
296	17780
296	17782
296	17784
296	17786
296	17788
296	17790
296	17792
295	17794
295	17796
295	17798
294	17800
294	17802
293	17804
293	17806
293	17808
294	17810
296	17812
299	17814
302	17816
307	17818
312	17820
319	17822
326	17824
334	17826
342	17828
350	17830
356	17832
362	17835
367	17837
370	17839
371	17841
371	17843
370	17845
368	17847
366	17849
364	17851
361	17853
358	17855
355	17857
352	17859
348	17861
345	17863
342	17865
339	17867
336	17869
333	17871
330	17873
327	17875
325	17878
323	17880
320	17882
319	17884
316	17886
314	17888
312	17890
310	17892
308	17894
307	17896
305	17898
304	17900
302	17902
301	17904
299	17906
298	17908
297	17910
296	17912
295	17914
294	17916
293	17918
293	17920
292	17922
291	17924
291	17926
290	17928
289	17930
289	17932
288	17934
288	17936
288	17938
287	17940
287	17942
287	17944
286	17946
286	17948
286	17950
286	17952
286	17954
286	17956
286	17958
286	17960
286	17963
286	17965
286	17967
286	17969
286	17971
287	17973
287	17975
287	17977
287	17979
287	17981
288	17983
288	17985
288	17987
289	17989
289	17991
289	17993
290	17995
290	17997
290	17999
291	18001